rid (filtro);MO.x;pH;Ca;Mg;K;Na;400;408,5;417;425,5;434;442,5;451;459,5;468;476,5;485;493,5;502;510,5;519;527,5;536;544,5;553;561,5;570;578,5;587;595,5;604;612,5;621;629,5;638;646,5;655;663,5;672;680,5;689;697,5;706;714,5;723;731,5;740;748,5;757;765,5;774;782,5;791;799,5;808;816,5;825;833,5;842;850,5;859;867,5;876;884,5;893;901,5;910;918,5;927;935,5;944;952,5;961;969,5;978;986,5;995;1003,5;1012;1020,5;1029;1037,5;1046;1054,5;1063;1071,5;1080;1088,5;1097;1105,5;1114;1122,5;1131;1139,5;1148;1156,5;1165;1173,5;1182;1190,5;1199;1207,5;1216;1224,5;1233;1241,5;1250;1258,5;1267;1275,5;1284;1292,5;1301;1309,5;1318;1326,5;1335;1343,5;1352;1360,5;1369;1377,5;1386;1394,5;1403;1411,5;1420;1428,5;1437;1445,5;1454;1462,5;1471;1479,5;1488;1496,5;1505;1513,5;1522;1530,5;1539;1547,5;1556;1564,5;1573;1581,5;1590;1598,5;1607;1615,5;1624;1632,5;1641;1649,5;1658;1666,5;1675;1683,5;1692;1700,5;1709;1717,5;1726;1734,5;1743;1751,5;1760;1768,5;1777;1785,5;1794;1802,5;1811;1819,5;1828;1836,5;1845;1853,5;1862;1870,5;1879;1887,5;1896;1904,5;1913;1921,5;1930;1938,5;1947;1955,5;1964;1972,5;1981;1989,5;1998;2006,5;2015;2023,5;2032;2040,5;2049;2057,5;2066;2074,5;2083;2091,5;2100;2108,5;2117;2125,5;2134;2142,5;2151;2159,5;2168;2176,5;2185;2193,5;2202;2210,5;2219;2227,5;2236;2244,5;2253;2261,5;2270;2278,5;2287;2295,5;2304;2312,5;2321;2329,5;2338;2346,5;2355;2363,5;2372;2380,5;2389;2397,5;2406;2414,5;2423;2431,5;2440;2448,5;2457;2465,5;2474;2482,5;2491
1;3,011137904;4,7;0,4819781;0,21379643;0,171673668;0,14659708;0,8649466;0,875096;0,87484;0,865835;0,8513846;0,8389671;0,8330894;0,8318337;0,8294095;0,8210835;0,8047317;0,7814109;0,7545651;0,7268549;0,6991202;0,6717112;0,6454297;0,6207001;0,5979692;0,5781637;0,5613246;0,5472756;0,5358214;0,5262541;0,5174838;0,5088039;0,5000286;0,490974;0,4817103;0,4725515;0,4637792;0,4552669;0,4469194;0,4387969;0,4309901;0,4234768;0,4162619;0,4093971;0,4029261;0,3968675;0,3912486;0,3860782;0,3813685;0,3770089;0,3729378;0,3692627;0,3659002;0,3626483;0,3595971;0,3570018;0,3548114;0,3528395;0,351035;0,3493612;0,3477683;0,3461745;0,3445628;0,3428905;0,3411426;0,3393363;0,3374825;0,3355489;0,333536;0,3314859;0,3294278;0,3273486;0,3250649;0,3224512;0,3198545;0,3173112;0,3147497;0,3121517;0,3095096;0,3068174;0,3040926;0,3013413;0,2985786;0,2957923;0,2929082;0,2899987;0,2872282;0,2843531;0,2830886;0,2812013;0,2783116;0,2755373;0,2728631;0,2702393;0,2677723;0,2653796;0,262955;0,2605397;0,25826;0,2561498;0,2541736;0,252268;0,2504956;0,2488733;0,2473939;0,2459202;0,2444485;0,2431108;0,2419516;0,2409661;0,2401989;0,2395865;0,239062;0,2385261;0,2380262;0,2376099;0,2372415;0,2371791;0,2374672;0,238237;0,2410187;0,2470801;0,2541987;0,2628377;0,2730265;0,2714297;0,2583044;0,2523291;0,2503469;0,2492998;0,2484365;0,247419;0,2460408;0,2446313;0,2433299;0,2420293;0,2407712;0,2397109;0,2387365;0,2379046;0,2372697;0,2366715;0,2360497;0,2354464;0,2349468;0,2344724;0,2340674;0,2338013;0,2337427;0,2335411;0,2331919;0,2330306;0,2330401;0,2331746;0,2332033;0,233368;0,2335452;0,2336388;0,2337576;0,234119;0,2346783;0,2353473;0,2359027;0,2364237;0,2372481;0,2379438;0,238584;0,239172;0,2396473;0,2400429;0,2403032;0,2403561;0,2403809;0,2404309;0,2405614;0,2408428;0,2411729;0,2421493;0,2444531;0,2499674;0,2591038;0,2733209;0,2931504;0,311237;0,3194973;0,3205896;0,318971;0,3160205;0,3123322;0,3083647;0,3044711;0,3007056;0,2969964;0,2934015;0,290109;0,2873516;0,2852003;0,2836187;0,2826979;0,2822812;0,2821808;0,2820832;0,2819974;0,2822204;0,2828516;0,283709;0,2848018;0,2856861;0,2857983;0,2863661;0,288598;0,2933815;0,3005198;0,3089178;0,3184192;0,3292878;0,3401542;0,3486584;0,3527949;0,3343998;0,3141621;0,3063518;0,3045652;0,3054469;0,3069777;0,3086822;0,3104454;0,3125029;0,315896;0,3204697;0,325842;0,3306878;0,3348734;0,3396257;0,3449345;0,3498354;0,351331;0,3517589;0,3550152;0,3590754;0,3606281;0,3616738;0,3652461;0,3713827;0,3788897;0,3865865;0,3922393;0,3956814;0,3987736;0,4025245;0,4068139;0,411534;0,414343
2;12,27134147;5;1,28772691;0,41872239;0,42172866;0,20123607;1,0693107;1,083294;1,0885547;1,0885037;1,0853343;1,0831494;1,082783;1,0831124;1,0819638;1,076658;1,0664283;1,0517894;1,0347539;1,0167013;0,9983215;0,9801037;0,9625342;0,9456465;0,929548;0,914562;0,900663;0,8879772;0,8768914;0,8669764;0,8569595;0,8460206;0,834071;0,8213657;0,8082946;0,7954612;0,7833284;0,7715837;0,7597873;0,7481078;0,7369876;0,7264266;0,7162995;0,7066069;0,6972809;0,688294;0,6796128;0,6712391;0,6631007;0,6550541;0,6471899;0,6396864;0,6324334;0,6251899;0,6180993;0,6115686;0,6053867;0,5994213;0,5936406;0,5880218;0,5825467;0,5771597;0,5718597;0,5666123;0,5614081;0,5562907;0,5512674;0,5462763;0,5413287;0,5364602;0,5316766;0,526943;0,5221627;0,5172973;0,5124698;0,5077004;0,5029681;0,4982614;0,4935763;0,4889163;0,4842977;0,4797223;0,4752117;0,470742;0,466227;0,4617507;0,4574578;0,4531233;0,4496207;0,4458865;0,4417464;0,4377153;0,4337051;0,4298359;0,4261768;0,4225814;0,4189247;0,4152718;0,4117428;0,408374;0,4051265;0,4019345;0,3988047;0,3957863;0,3929123;0,3901002;0,3873525;0,3847471;0,3822905;0,3799662;0,3777926;0,3757665;0,373897;0,3721409;0,3704743;0,3689601;0,3675652;0,3663523;0,365309;0,3648301;0,3658942;0,3693387;0,3744915;0,3812003;0,3885433;0,3899425;0,3856034;0,383702;0,3829388;0,3820522;0,3806973;0,3786304;0,3759187;0,373189;0,3705219;0,3678192;0,3651958;0,3628217;0,3605119;0,3584635;0,3567788;0,3551564;0,3534613;0,3518046;0,350302;0,3488741;0,3475158;0,3463544;0,3454577;0,3444472;0,3433565;0,3425416;0,342005;0,3417225;0,3413672;0,3411524;0,3410252;0,3408119;0,3406251;0,3408744;0,3414958;0,3422825;0,3428109;0,3429165;0,3433847;0,3439696;0,3445195;0,3448828;0,3451189;0,3452163;0,3450859;0,3447165;0,3442684;0,3438588;0,3435199;0,3434172;0,3439454;0,3456307;0,3493422;0,3576528;0,3729815;0,3983369;0,4303921;0,4573858;0,4725349;0,4785942;0,4788296;0,4752074;0,4693317;0,4624702;0,4553932;0,4483123;0,441207;0,4342372;0,4278358;0,4224994;0,4183055;0,415132;0,4129224;0,4113641;0,4100607;0,4085589;0,4069914;0,4057615;0,4049442;0,4044379;0,4041147;0,4036885;0,4031883;0,403407;0,4049324;0,407924;0,4124144;0,4186351;0,42583;0,432685;0,4381926;0,4427379;0,4449681;0,4350979;0,4249459;0,4221871;0,4240399;0,4289941;0,4338616;0,43828;0,4409902;0,4420986;0,4448029;0,4489124;0,4539147;0,4575709;0,4596303;0,4631817;0,4678466;0,4729153;0,4753945;0,4773037;0,4808888;0,4852299;0,4886444;0,491812;0,4965546;0,502976;0,5109537;0,519375;0,526996;0,533605;0,5404531;0,5474561;0,5543123;0,5608247;0,5654495
3;5,326188797;5,07;3,59276796;0,53385747;0,213424524;0,17626098;0,8771275;0,8862681;0,8863029;0,8796168;0,8695109;0,8602412;0,8550318;0,8523501;0,8489253;0,8420537;0,8298522;0,8128677;0,7932252;0,7726645;0,7518507;0,7313884;0,712039;0,6939985;0,6774401;0,662717;0,6496822;0,6380704;0,627858;0,6186541;0,6097385;0,6005632;0,5910578;0,5813087;0,5714499;0,5617561;0,5524839;0,5433735;0,5340405;0,5246605;0,5156704;0,5071532;0,4990098;0,4912305;0,4838076;0,4766937;0,4698757;0,463342;0,4570992;0,4510964;0,4453254;0,4399165;0,4348444;0,429944;0,4253448;0,4212873;0,4176746;0,4143476;0,4112395;0,4083119;0,4055032;0,4027364;0,3999862;0,397204;0,394384;0,3915524;0,3887202;0,3858577;0,3829673;0,3800905;0,3772679;0,3745049;0,3716355;0,3686021;0,3656268;0,3627355;0,3598775;0,3570346;0,3541959;0,3513511;0,3485084;0,345666;0,3428413;0,3400131;0,3371058;0,334185;0,3313843;0,3285235;0,3269689;0,3248935;0,3220319;0,31927;0,3165066;0,3137989;0,3112086;0,3086741;0,306107;0,3035138;0,3010342;0,2987031;0,2964704;0,2942542;0,2921164;0,2900737;0,288144;0,2862466;0,2843488;0,2825575;0,2808902;0,2793399;0,2779155;0,2765932;0,275329;0,2741335;0,2729686;0,2718818;0,2708125;0,2698232;0,2689216;0,2683889;0,2689034;0,270929;0,2749276;0,2824211;0,2901641;0,2882628;0,2793334;0,2746913;0,2727619;0,2715448;0,2705097;0,2693824;0,2679754;0,2664896;0,265003;0,2635073;0,2620318;0,2606862;0,2594473;0,2583377;0,2573749;0,2564654;0,2555794;0,2547089;0,2539012;0,253112;0,2523578;0,2517478;0,2513405;0,2507601;0,2500237;0,2494739;0,2490958;0,2488654;0,2485242;0,2482929;0,248048;0,2477006;0,2474119;0,2473704;0,2475365;0,247785;0,2479218;0,2480052;0,24838;0,2486548;0,2488522;0,2490036;0,2490169;0,2489625;0,2488346;0,2485836;0,2482979;0,2480799;0,2479327;0,247919;0,2480336;0,2486919;0,2504046;0,2548173;0,2625214;0,2748609;0,2919268;0,3070854;0,3145989;0,3165117;0,3155809;0,3129639;0,3094043;0,3055733;0,3018116;0,2982182;0,2946782;0,2912018;0,288021;0,2853869;0,2833552;0,2818835;0,2810088;0,280621;0,2804213;0,2801025;0,2797504;0,2796465;0,2799149;0,2804754;0,2810844;0,2813663;0,2811087;0,2809571;0,2816453;0,2836354;0,2869824;0,2920595;0,2993186;0,3092837;0,3207157;0,3288847;0,3288897;0,3156921;0,302457;0,296201;0,2942226;0,2945989;0,2956094;0,2966926;0,2979256;0,2997285;0,302461;0,3059267;0,3100488;0,3139092;0,3176714;0,3225695;0,3275395;0,3311798;0,3315144;0,3311564;0,332795;0,3353033;0,3369731;0,3387693;0,3425236;0,3481797;0,3547494;0,3610532;0,3656107;0,3684715;0,371119;0,3739848;0,3770563;0,3802325;0,3821446
4;7,198115784;4,55;1,1989068;0,45239397;0,428312016;0,22066114;1,0522662;1,0615795;1,0635756;1,0592291;1,0518092;1,0452102;1,0410136;1,0384983;1,0356264;1,0296327;1,0188926;1,0038288;0,9861594;0,9672148;0,947658;0,9281542;0,9094366;0,8916135;0,8748088;0,8595529;0,8458371;0,8336438;0,8230367;0,8135369;0,8042484;0,7945781;0,7845059;0,7741781;0,7638458;0,7537175;0,7440987;0,7347447;0,7251916;0,7156176;0,7064652;0,6978263;0,6896497;0,68194;0,6746776;0,6677893;0,6612446;0,6550717;0,6492506;0,6435668;0,6380445;0,6328567;0,6279183;0,623029;0,6182337;0,6139107;0,609927;0,606142;0,602509;0,5990205;0,5956452;0,5923102;0,5890079;0,5857094;0,582409;0,5791337;0,5759181;0,5727227;0,5695188;0,5663277;0,563198;0,5601206;0,5569293;0,5536302;0,5503702;0,5471527;0,5439581;0,5407796;0,5376134;0,5344563;0,5313191;0,528209;0,5251358;0,5221028;0,5190271;0,5159662;0,5130712;0,5101576;0,5077106;0,5051644;0,5022441;0,4995089;0,4968414;0,4941766;0,491661;0,4891784;0,4866881;0,4841821;0,4817762;0,4795086;0,477356;0,4752424;0,4732099;0,4712592;0,4694231;0,4675902;0,4657556;0,4640476;0,4624521;0,460957;0,4595527;0,4582337;0,4569734;0,4558018;0,4546677;0,4536279;0,4526063;0,4515901;0,4505719;0,4497988;0,449519;0,4504458;0,4546529;0,4618596;0,4672926;0,4650767;0,459632;0,4567986;0,455483;0,454566;0,4537016;0,4526567;0,451227;0,449634;0,4480623;0,446523;0,4450129;0,443638;0,4423338;0,4411196;0,4400762;0,4390799;0,4381158;0,4371662;0,436271;0,4354014;0,4345682;0,4338619;0,4333458;0,4326993;0,431895;0,4312983;0,4308567;0,4305117;0,4300105;0,4296128;0,4292562;0,428751;0,4283039;0,4281243;0,4281605;0,4283086;0,4284344;0,4285229;0,4289053;0,4291666;0,4293257;0,4294429;0,4294114;0,4292948;0,4291064;0,4287933;0,4284388;0,428138;0,4279316;0,4278103;0,4279818;0,4286977;0,4303747;0,4346554;0,442812;0,4570881;0,4774554;0,4946809;0,5023652;0,5040092;0,5026055;0,4994934;0,4954987;0,4912017;0,4869174;0,4827724;0,4786682;0,4746722;0,4709972;0,4678956;0,4653722;0,4633995;0,4620889;0,4613283;0,4608549;0,4603393;0,4598135;0,459485;0,459579;0,4598941;0,4600371;0,459819;0,4593228;0,4589698;0,4592528;0,4603855;0,463005;0,4687343;0,4771897;0,4858395;0,4925751;0,4937735;0,4879581;0,4780261;0,4703398;0,4668399;0,4661854;0,4672571;0,468834;0,4704628;0,4718763;0,4735283;0,476039;0,4795386;0,4836547;0,4874656;0,4911963;0,4955941;0,4994889;0,5020719;0,5025651;0,5030906;0,5047981;0,50708;0,5095348;0,5126908;0,5174168;0,523816;0,5314618;0,5386709;0,5435188;0,5470457;0,5506353;0,5546893;0,5589275;0,5630286;0,5655198
5;4,64318841;4,44;2,35334865;0,52643524;0,336426372;0,17367735;0,908724;0,9223034;0,9259489;0,9226421;0,9152622;0,9079961;0,9036914;0,9011256;0,8976901;0,8907961;0,8786029;0,8612105;0,8404746;0,8178623;0,7943396;0,7706281;0,7475457;0,7254185;0,7044329;0,6854225;0,6683021;0,6527993;0,6388537;0,6262981;0,6146379;0,6034225;0,5923863;0,5811483;0,5696752;0,5583384;0,5474233;0,5367209;0,5260416;0,5155044;0,5053601;0,495637;0,4863259;0,477467;0,4690934;0,4611919;0,4537669;0,4468325;0,4403485;0,4341652;0,4283083;0,4229471;0,4179413;0,413065;0,408409;0,4043434;0,4007168;0,3973499;0,3941984;0,3912235;0,3883768;0,3856015;0,3828748;0,3801644;0,3774494;0,3747505;0,3720706;0,3693696;0,3666503;0,3639441;0,3612918;0,358672;0,3559062;0,3529733;0,3500659;0,3472008;0,3443387;0,3414688;0,3385807;0,3356743;0,3327673;0,329866;0,3269892;0,3241204;0,3211725;0,3182132;0,3153383;0,3123713;0,3110303;0,3090939;0,3062913;0,3035577;0,3009207;0,2983276;0,2958623;0,293464;0,2910154;0,2885877;0,2863055;0,2841685;0,2821362;0,2801413;0,2782302;0,2764263;0,2747397;0,2730863;0,2714526;0,2699298;0,2685234;0,2672393;0,2660511;0,2649779;0,2639743;0,2630623;0,2621689;0,2613649;0,260568;0,2598034;0,2590893;0,2587246;0,2592022;0,2611872;0,2659217;0,273765;0,2805375;0,2785472;0,2714288;0,2676725;0,266085;0,2651355;0,2643404;0,2634031;0,2621331;0,2607575;0,259396;0,2580385;0,2566871;0,2554494;0,2543111;0,2532977;0,2524241;0,2516042;0,2508192;0,250047;0,2493398;0,2486636;0,2480646;0,2476124;0,2473534;0,2469133;0,2463027;0,2458843;0,2456377;0,2455173;0,245251;0,2450806;0,2448775;0,244587;0,2443517;0,244367;0,2445539;0,2448375;0,2450326;0,2452598;0,2457763;0,2461475;0,2464337;0,2466951;0,2467992;0,2468028;0,2467376;0,2465415;0,2463329;0,2461895;0,2460734;0,2460952;0,2464065;0,2472348;0,2490883;0,2537567;0,2620195;0,2753477;0,2931503;0,3079661;0,3149146;0,3165445;0,3154827;0,3128925;0,3094696;0,3057143;0,3019823;0,2983458;0,2947517;0,291176;0,2878523;0,2850373;0,2827782;0,2809613;0,2796957;0,2788702;0,2782772;0,2776715;0,2770914;0,2767628;0,2768173;0,2771468;0,2774183;0,2773975;0,2770314;0,2768276;0,2773341;0,2789286;0,2820034;0,287659;0,2957673;0,3049225;0,3134774;0,3182324;0,3164136;0,3060226;0,2961659;0,2914114;0,2900149;0,2902352;0,2908052;0,2914868;0,2924906;0,294154;0,2966375;0,299817;0,303623;0,3073844;0,3111379;0,3155455;0,3197071;0,3226802;0,3233457;0,3237384;0,3256036;0,3281685;0,3301406;0,3325143;0,3365304;0,3421458;0,3486206;0,3547351;0,3591235;0,3620228;0,3647138;0,3678126;0,3709378;0,3742177;0,3762895
6;4,415521614;6,28;12,6357311;0,87509902;0,2405457;0,23003876;0,8285611;0,8323199;0,8288432;0,8192335;0,8059485;0,7943432;0,7877797;0,7848466;0,7817855;0,7755822;0,7648718;0,7499845;0,7326957;0,7145477;0,6963239;0,6784398;0,66158;0,6460626;0,6320913;0,6200172;0,6094756;0,6000121;0,591475;0,5836739;0,5762982;0,5690332;0,5616562;0,553694;0,5452346;0,5369146;0,5289985;0,5212632;0,5135754;0,5060536;0,4987895;0,4917681;0,4849733;0,4784377;0,4721858;0,4662036;0,4604967;0,4550852;0,4499782;0,4450805;0,4403574;0,4359406;0,43176;0,4276507;0,4237206;0,4202089;0,4170558;0,4141125;0,4113398;0,4087131;0,4061947;0,4037252;0,4012941;0,3988745;0,3964612;0,3940768;0,3917353;0,3894079;0,3870775;0,3847707;0,3825286;0,3803543;0,378063;0,3756139;0,3732166;0,3708903;0,3685856;0,3662914;0,3639975;0,3617015;0,3594153;0,3571475;0,3549163;0,3526944;0,3504186;0,3481447;0,3460056;0,3437791;0,3428213;0,3414334;0,339305;0,3372736;0,3353336;0,3334131;0,3315831;0,3298089;0,3280271;0,3262485;0,3245698;0,3230487;0,3216166;0,3202153;0,3188958;0,3176523;0,3165081;0,3153962;0,3142809;0,3132499;0,312307;0,3114572;0,3106855;0,309977;0,3093131;0,3087125;0,3081196;0,3075815;0,307029;0,3064536;0,3058873;0,3055568;0,3057357;0,3066816;0,3099966;0,3167623;0,3227051;0,3206699;0,3138003;0,3102285;0,308891;0,3082133;0,307669;0,3070545;0,3062452;0,3053679;0,3044994;0,3036311;0,3027808;0,3020132;0,3013035;0,300647;0,3001026;0,2995985;0,2990925;0,2985919;0,2981541;0,2977286;0,2973311;0,2970593;0,2969609;0,296653;0,2961748;0,2958367;0,2956204;0,2954825;0,2951739;0,2949817;0,294757;0,2943857;0,2940558;0,2939382;0,2939503;0,2940368;0,2941224;0,294317;0,294759;0,2949933;0,2951417;0,2953078;0,2953261;0,2952699;0,2951781;0,2950147;0,2948111;0,294664;0,2945719;0,2945717;0,2947263;0,2951993;0,2962937;0,2993601;0,3045822;0,3127562;0,3242564;0,3342687;0,3388104;0,3396552;0,3387163;0,336818;0,3343639;0,3317428;0,3292072;0,3267721;0,3243783;0,3219673;0,3197094;0,3178013;0,3162636;0,3150484;0,3142506;0,3137919;0,3135068;0,3131517;0,3127751;0,3125686;0,3126856;0,3130744;0,3134446;0,3135167;0,3131467;0,3127123;0,3127562;0,3135841;0,315297;0,3187613;0,3245547;0,3331114;0,3433165;0,3495387;0,347153;0,336909;0,327269;0,3222246;0,3201557;0,3197325;0,3198741;0,3201662;0,3206202;0,3215981;0,3233078;0,3255879;0,3284672;0,3316407;0,3351192;0,339387;0,3433094;0,3457161;0,3456725;0,3452569;0,3462032;0,3479641;0,3493408;0,3511565;0,3544911;0,3593616;0,3646243;0,3693439;0,3723574;0,3740339;0,3754115;0,376863;0,3783896;0,3799841;0,3808522
7;4,66848472;6,26;13,17611748;0,7223097;0,305985384;0,15453935;0,9229394;0,9331318;0,9322061;0,9220079;0,9070725;0,894511;0,8897421;0,8898973;0,8889697;0,8818709;0,8669987;0,8454128;0,8203355;0,7943156;0,7683563;0,7426947;0,7182259;0,6956544;0,6757165;0,6592175;0,645449;0,633352;0,6230083;0,6144677;0,6070282;0,6001832;0,5930445;0,5834811;0,5719702;0,5612151;0,551639;0,5425015;0,5335052;0,524689;0,5161279;0,5077965;0,4996793;0,4918533;0,4843875;0,4773343;0,4707446;0,4646731;0,459175;0,4542291;0,4497074;0,4457089;0,4421728;0,4388871;0,4359486;0,43351;0,4315523;0,4298671;0,4283762;0,4270319;0,4257627;0,4244841;0,4231677;0,4217732;0,4202863;0,418718;0,4170806;0,4153602;0,4135397;0,4116524;0,4097646;0,4078736;0,4057147;0,4032345;0,4007405;0,3982658;0,3957402;0,3931429;0,3904686;0,3877148;0,3848993;0,3820275;0,3791101;0,3761264;0,3730178;0,3698578;0,3667662;0,3635525;0,3616598;0,3592569;0,3559734;0,352822;0,3498288;0,3468443;0,3440115;0,3412374;0,3384201;0,3356309;0,3329777;0,3304945;0,3281706;0,3259306;0,3238277;0,3218619;0,3200675;0,3183458;0,3166563;0,3150794;0,3136861;0,3124492;0,3114036;0,3104902;0,3096658;0,3089373;0,3082684;0,3076784;0,307093;0,3065929;0,3062703;0,3064718;0,3078493;0,3114931;0,319483;0,3326738;0,3437927;0,3418573;0,3314088;0,3258737;0,3239472;0,3229699;0,3220584;0,3208088;0,3190651;0,3171632;0,3152963;0,3134464;0,3116646;0,3100727;0,3085954;0,3073132;0,3062494;0,3052531;0,3042797;0,3033345;0,3024827;0,3016923;0,3009555;0,3003993;0,3000692;0,2995872;0,2989526;0,2985268;0,2982898;0,2982141;0,2980668;0,2980821;0,2981263;0,2980424;0,2979584;0,2981493;0,2986414;0,2992733;0,2997546;0,3000827;0,3007045;0,3012806;0,3017756;0,3021834;0,3024286;0,3025362;0,3024856;0,3022856;0,30203;0,3018638;0,3018192;0,3019889;0,3025114;0,3039828;0,3074617;0,3156893;0,3285026;0,3476835;0,3734044;0,3955781;0,4063987;0,4091941;0,40788;0,4041919;0,3992026;0,3937288;0,3882297;0,3827837;0,3773475;0,3719568;0,3669521;0,3626677;0,3592533;0,3566696;0,3549322;0,3538172;0,3529551;0,3519799;0,3509755;0,3503911;0,3504057;0,3508489;0,3512971;0,3513605;0,3509567;0,3506112;0,3512414;0,3535904;0,3580669;0,3656109;0,376216;0,3895885;0,4040742;0,4133703;0,4117382;0,3972394;0,3809078;0,3719452;0,3693396;0,370578;0,3726833;0,3746723;0,3761835;0,3778479;0,381054;0,3857634;0,3916447;0,3975538;0,4032291;0,4102032;0,4171157;0,4218488;0,4225976;0,4227273;0,4250572;0,4288145;0,4321496;0,4359954;0,441843;0,4497878;0,458583;0,4667208;0,4726639;0,4765665;0,4798529;0,4833619;0,4868678;0,4906207;0,4933086
8;8,108782967;4,69;1,6062277;0,47556581;0,530550972;0,13243496;1,0013916;1,0147517;1,0179747;1,0138528;1,0063754;1,0001299;0,9983203;0,9991927;0,9981374;0,9918543;0,9785498;0,9594616;0,9375286;0,9146418;0,8915587;0,8687363;0,8469821;0,8265051;0,8075737;0,7906677;0,7756095;0,7624438;0,7514548;0,7419456;0,7324646;0,7219775;0,7105283;0,6983716;0,685818;0,6733553;0,6613967;0,6498262;0,6384151;0,6272796;0,6166177;0,6064374;0,5966793;0,5873543;0,5784593;0,5699808;0,5619183;0,5543019;0,5471447;0,5403625;0,5338721;0,5278103;0,5221258;0,5166441;0,5114554;0,5067781;0,5025645;0,4986298;0,4949216;0,4914081;0,4880328;0,4847276;0,4814634;0,4782003;0,4749222;0,4716508;0,4684123;0,4651671;0,4618886;0,4585991;0,455332;0,4520676;0,4486688;0,4451063;0,4415424;0,4379954;0,4344287;0,4308338;0,4272104;0,423553;0,4198763;0,4161862;0,4124967;0,4087861;0,4049824;0,4011751;0,3975171;0,3937958;0,3910901;0,3880275;0,384269;0,3806605;0,377139;0,3736817;0,3704214;0,3672345;0,3640103;0,3607818;0,3576854;0,3547709;0,3520007;0,3493193;0,3467581;0,3443228;0,3420639;0,3398639;0,3377396;0,3357506;0,3339528;0,3323091;0,3308108;0,3294765;0,328259;0,3271622;0,3261311;0,3252395;0,3244221;0,3237185;0,3231917;0,3231587;0,3244188;0,3279456;0,3341184;0,3428538;0,3509633;0,3514736;0,3462537;0,3439399;0,3431961;0,3425666;0,341553;0,3399466;0,3377518;0,3355332;0,333401;0,3312668;0,3292519;0,327454;0,3257013;0,3241726;0,3229669;0,3218136;0,3205762;0,3193972;0,3183587;0,3173925;0,3164957;0,3157691;0,3152727;0,3146627;0,3139586;0,3134905;0,31325;0,3132161;0,3130878;0,3131163;0,3131916;0,3131725;0,3131754;0,3135284;0,3141789;0,3149672;0,3155568;0,3159035;0,3165872;0,3172892;0,3179215;0,3184259;0,3187776;0,3189667;0,3189922;0,3187874;0,3185286;0,3183134;0,3182102;0,3183266;0,3188507;0,3203526;0,3236306;0,3310767;0,3442321;0,365458;0,3933009;0,4176991;0,4311887;0,4361834;0,4359941;0,4325776;0,4272957;0,4212717;0,4150762;0,4089236;0,4027992;0,3967906;0,3912725;0,3866479;0,3829869;0,3801964;0,378245;0,3769004;0,3758581;0,3747227;0,3734974;0,3725792;0,372101;0,3719417;0,3718867;0,3716295;0,3711953;0,3712064;0,37227;0,3747651;0,3789023;0,3852952;0,3934529;0,4019858;0,4095498;0,4148566;0,4152433;0,4049704;0,3942996;0,3904665;0,3913919;0,3953255;0,3992839;0,4029801;0,4051715;0,406009;0,4085075;0,4125073;0,4174153;0,4215908;0,4246814;0,4289863;0,434029;0,4388207;0,4407983;0,4422007;0,4451719;0,4489394;0,4521846;0,4554183;0,4601521;0,4665039;0,4741606;0,4820234;0,4886129;0,4940312;0,4995429;0,5053802;0,5111438;0,5166046;0,5205458
9;8,842375975;4,96;4,40653144;0,58237351;0,45070668;0,22927324;0,971868;0,9863487;0,9902951;0,988291;0,9833696;0,9791735;0,9784122;0,9790854;0,9778643;0,9724302;0,9612125;0,9448765;0,926002;0,906103;0,8857925;0,8655926;0,8461791;0,8277352;0,8103704;0,7945856;0,7802346;0,7671634;0,7554488;0,7447479;0,734255;0,7233057;0,7118569;0,6999215;0,6876314;0,6753591;0,6633618;0,6514337;0,6393738;0,627392;0,6157754;0,6045523;0,5937171;0,5833275;0,5733681;0,5638215;0,5546662;0,5458834;0,5375063;0,5294198;0,5215096;0,5138984;0,506612;0,4995036;0,492666;0,4862826;0,4803597;0,4747178;0,4693106;0,4641263;0,4591197;0,4542288;0,4494384;0,4447095;0,4400327;0,4354306;0,4309341;0,4265013;0,422102;0,4177501;0,4134894;0,4092906;0,4049733;0,4005313;0,3961552;0,391857;0,3875997;0,3833723;0,3791634;0,3749709;0,3708102;0,3666852;0,3626056;0,3585535;0,3544507;0,3503873;0,3465052;0,3426297;0,3400738;0,3370306;0,3332133;0,3295501;0,3259301;0,3224717;0,3191909;0,3159746;0,3127273;0,3094838;0,3063918;0,3034696;0,3006894;0,2979652;0,2953392;0,2928592;0,2905423;0,2882557;0,2860191;0,2839536;0,2820548;0,2803159;0,2787437;0,2773275;0,2760172;0,2748288;0,2737327;0,2727576;0,2718536;0,2710792;0,2704892;0,2704036;0,2716201;0,2754818;0,2827892;0,2930733;0,3017192;0,2996585;0,2922365;0,2887728;0,2873792;0,2864413;0,2855407;0,284301;0,2824126;0,2802856;0,2781777;0,2760508;0,2739996;0,2721767;0,2705187;0,2690723;0,2678544;0,2667427;0,2656536;0,2646057;0,2636451;0,2627225;0,2618544;0,2611645;0,2606998;0,2601112;0,2593919;0,2589127;0,2586675;0,258607;0,2584649;0,2585037;0,2586176;0,2586771;0,258757;0,2591581;0,2598441;0,2606851;0,2612996;0,2615964;0,2622623;0,2629733;0,2635761;0,2640268;0,2643396;0,2645517;0,2646067;0,2644545;0,26425;0,2641075;0,2640814;0,2642658;0,2647891;0,2663186;0,2696931;0,2773291;0,290563;0,3120108;0,3403681;0,363703;0,3745277;0,3774166;0,3763039;0,3726649;0,3675995;0,3619118;0,3561215;0,3504037;0,3447122;0,3391307;0,3340059;0,3297036;0,3262934;0,3237269;0,322016;0,3209558;0,32023;0,3194013;0,3185363;0,3180072;0,31793;0,3181282;0,3182433;0,3179826;0,3174668;0,317402;0,3183603;0,3208309;0,325547;0,3336554;0,3439145;0,3536884;0,3609915;0,3637512;0,3599779;0,3470368;0,3359926;0,3317684;0,3316053;0,3335925;0,3360375;0,3384679;0,3408029;0,3432693;0,3469003;0,351646;0,3571168;0,3616066;0,3651313;0,3698285;0,3745028;0,3784502;0,3798238;0,3809842;0,3839688;0,3877372;0,3908191;0,3941876;0,3993185;0,4063032;0,4145606;0,4227288;0,4289805;0,4335624;0,4382155;0,4434823;0,4489885;0,4540816;0,4573855
10;3,125409772;4,66;2,5701839;0,470678;0,281508804;0,14860657;0,9311066;0,9428973;0,9455435;0,9414386;0,9337467;0,926414;0,922043;0,9199251;0,9172856;0,9112901;0,9003723;0,8844321;0,8651822;0,8439075;0,8216332;0,7989758;0,7767309;0,7552349;0,734877;0,7166967;0,7006809;0,6865574;0,6743268;0,6636607;0,6538517;0,6444104;0,6349161;0,6246411;0,613735;0,6031268;0,5930932;0,5832728;0,5734246;0,5637402;0,5545131;0,5457672;0,5374541;0,5296295;0,5222851;0,5154147;0,509018;0,5030583;0,4975252;0,4923703;0,4875506;0,4831247;0,4789937;0,474982;0,4712595;0,46799;0,4651084;0,4624474;0,4599403;0,4575602;0,4552578;0,4529577;0,4506447;0,4482836;0,4458621;0,4434048;0,4409315;0,4384274;0,4358825;0,4333315;0,4308234;0,4283516;0,4257147;0,4229062;0,4201451;0,4174481;0,4147721;0,4120967;0,4094135;0,406713;0,4040143;0,4013226;0,3986445;0,3959558;0,3931809;0,390406;0,3877306;0,3849311;0,3833205;0,3813153;0,378626;0,3760049;0,3735336;0,3710572;0,3687142;0,3664155;0,3640839;0,3617652;0,3595648;0,3575217;0,3555995;0,3537196;0,3519176;0,3502071;0,348608;0,3470518;0,3455006;0,3440607;0,3427407;0,3415191;0,3403923;0,33937;0,3383908;0,3374916;0,3366177;0,3358146;0,3349995;0,3342123;0,3334357;0,33297;0,3330828;0,334452;0,3390694;0,3473549;0,3540748;0,3513396;0,3437974;0,3397474;0,3380464;0,3370691;0,3363065;0,335429;0,3342533;0,3329921;0,3317403;0,3305063;0,3293086;0,3282382;0,3272547;0,3263806;0,3256214;0,324897;0,3241948;0,323481;0,3228025;0,3221409;0,3215238;0,3210601;0,3207621;0,320276;0,3196279;0,3191469;0,3188121;0,3185858;0,318208;0,3179551;0,3176914;0,3172855;0,3169378;0,3168522;0,3169288;0,3170824;0,3171754;0,3172886;0,3176893;0,3179531;0,3181245;0,31825;0,3182486;0,3181728;0,3180451;0,3178222;0,3175689;0,3173846;0,3172519;0,3171761;0,3173273;0,3179919;0,3193974;0,3230318;0,3298953;0,341802;0,3586144;0,3722284;0,3774094;0,3778611;0,3763796;0,3738782;0,3708037;0,3675465;0,3643405;0,3612586;0,3582152;0,3551612;0,3522992;0,3498161;0,3477171;0,3460353;0,3448707;0,3441147;0,3436114;0,343127;0,3426297;0,3424276;0,3426347;0,3431006;0,3434271;0,3433865;0,3430262;0,3426906;0,3428994;0,3439895;0,346487;0,3518521;0,36003;0,369296;0,3777848;0,3812758;0,3768817;0,3666891;0,3579968;0,3533986;0,3517777;0,3520554;0,3529063;0,3535036;0,3539408;0,3551227;0,3573754;0,3604438;0,3643079;0,3681667;0,3721267;0,3768675;0,381179;0,3837968;0,3838063;0,3835782;0,3845558;0,3862172;0,3878102;0,3900849;0,3941116;0,3998179;0,406333;0,4122324;0,4159674;0,4180957;0,4200781;0,4225487;0,4253331;0,4281523;0,4298016
11;6,034485495;7,68;63,84815492;1,08183528;0,15023556;0,16898854;1,0447859;1,0561264;1,0581239;1,0542499;1,0469182;1,0404313;1,0373391;1,0360738;1,0335741;1,0275924;1,0169756;1,0021627;0,9849644;0,9668424;0,9483621;0,9298422;0,9119523;0,8949195;0,8790536;0,8650056;0,8525598;0,8411962;0,8309185;0,8216113;0,8129193;0,8044373;0,7958515;0,7867444;0,777187;0,767613;0,758305;0,7490466;0,7396919;0,7304019;0,721417;0,7127528;0,7043192;0,6961054;0,6881063;0,6803017;0,6727411;0,6655078;0,6586716;0,6520973;0,6457235;0,6397116;0,6340222;0,6285099;0,6232047;0,6183361;0,6138644;0,6096189;0,6055338;0,6015878;0,5977485;0,5939384;0,5901427;0,5863441;0,582523;0,5787072;0,5749357;0,5711911;0,5674347;0,5636718;0,559938;0,5562289;0,5524288;0,5485278;0,5446329;0,5407677;0,5369055;0,5330381;0,5291616;0,5252784;0,5213991;0,5175211;0,5136635;0,5098222;0,5058981;0,5019812;0,4982259;0,4944002;0,4913609;0,4880881;0,4842927;0,4806696;0,4771123;0,4735855;0,4702095;0,4669289;0,4636263;0,4603506;0,4572192;0,4542412;0,4514395;0,4486957;0,4460715;0,4435714;0,4411917;0,4388862;0,436635;0,4345121;0,4325267;0,4306445;0,4288807;0,4272283;0,425646;0,4241719;0,4227485;0,421419;0,4201203;0,4188573;0,4176081;0,4166309;0,4162661;0,4168648;0,419601;0,4249371;0,4299765;0,4294941;0,4251556;0,4226289;0,4213932;0,4204011;0,4193156;0,4179669;0,4162447;0,4144043;0,4125709;0,4107444;0,4089313;0,4072534;0,4056453;0,4041574;0,4028334;0,401585;0,4003811;0,3992077;0,3981268;0,3971037;0,3961391;0,3953186;0,3946999;0,3939194;0,392985;0,3922356;0,3916376;0,3911521;0,390535;0,3900307;0,3895046;0,3888536;0,3882332;0,3878633;0,3876919;0,3876596;0,3876275;0,3876394;0,3879075;0,3880194;0,3880562;0,3880599;0,3879015;0,3876219;0,3872462;0,3867454;0,3862094;0,3857388;0,3853767;0,3852045;0,3853383;0,3860639;0,3879957;0,3929031;0,40153;0,4153991;0,434266;0,4513542;0,460849;0,464267;0,4639863;0,4614232;0,457472;0,4529648;0,448371;0,443801;0,4392629;0,4347617;0,4304908;0,4267696;0,4236513;0,4210986;0,4190941;0,4175769;0,4162832;0,4149537;0,4135481;0,4123646;0,4115332;0,4110396;0,4106174;0,4099998;0,4091213;0,4083764;0,4082737;0,4090084;0,4106197;0,4137024;0,4183305;0,4246466;0,4321536;0,4375956;0,4372745;0,4298185;0,4215313;0,4174225;0,4166234;0,417825;0,4194306;0,4210409;0,4221332;0,4231789;0,4250806;0,4276865;0,430869;0,4340883;0,4374328;0,4417537;0,4459687;0,449073;0,4499521;0,4506016;0,4524879;0,4554202;0,4581329;0,4612052;0,4653928;0,470925;0,4770974;0,4829628;0,4877489;0,4915667;0,4951791;0,4988757;0,5024018;0,5057933;0,5082093
12;8,780450607;5,36;2,91942589;0,217236;0,16345854;0,14018585;1,041308;1,0542116;1,057954;1,0555069;1,0505213;1,0462037;1,0445392;1,0442473;1,0423708;1,0362329;1,0250604;1,0093429;0,991126;0,9718515;0,9523902;0,9332702;0,9151319;0,8982028;0,8824272;0,8679337;0,8545975;0,842668;0,8324001;0,8232213;0,8136597;0,802842;0,7909388;0,7783219;0,7653701;0,7526226;0,7404051;0,7287182;0,7175241;0,706926;0,6968722;0,6872314;0,6779294;0,6689689;0,6603187;0,6519558;0,6438636;0,6360516;0,6285859;0,621404;0,6142994;0,6073899;0,6007485;0,5942956;0,5880787;0,582188;0,5767274;0,5714903;0,5664341;0,5615376;0,5567689;0,5520747;0,5474376;0,5428489;0,538287;0,5337589;0,5293071;0,5249314;0,5205891;0,5162804;0,5120355;0,5078323;0,5035645;0,499228;0,4949273;0,4906819;0,4864677;0,4822727;0,4780972;0,4739339;0,4698129;0,4657372;0,4617046;0,4576889;0,4536129;0,4495717;0,4456348;0,4416906;0,4389317;0,435795;0,4320648;0,428436;0,4248536;0,4213928;0,4180926;0,4148442;0,4115797;0,4083253;0,4051788;0,4021851;0,3993423;0,3965389;0,3938144;0,3911963;0,3886998;0,3862755;0,3839132;0,3816615;0,3795541;0,3775475;0,3756575;0,3738959;0,3722399;0,3707204;0,3692608;0,367924;0,3666319;0,3653948;0,3642443;0,3635112;0,3636811;0,365308;0,3693734;0,3757107;0,3812979;0,3816994;0,3784855;0,376853;0,3760457;0,3751796;0,3739737;0,3722744;0,3700851;0,3678162;0,365573;0,3633257;0,3611575;0,3591757;0,3572815;0,3555951;0,3541814;0,3528299;0,3514359;0,3500645;0,3488001;0,3476127;0,3464939;0,345547;0,3448295;0,3439766;0,342979;0,3422143;0,3416903;0,3413443;0,3409134;0,3405663;0,3402235;0,3397652;0,3393585;0,3393034;0,3395191;0,339858;0,3400484;0,3401558;0,3405888;0,3409576;0,3412578;0,3415044;0,3415734;0,3415024;0,3412549;0,3408732;0,340429;0,3400165;0,3397323;0,3396935;0,3399707;0,3411438;0,3438573;0,350207;0,3616279;0,3802998;0,4049147;0,4269026;0,4396752;0,4448164;0,4449403;0,4418715;0,4369556;0,4313207;0,4255724;0,4198669;0,4141492;0,4084632;0,4032195;0,398774;0,3951695;0,3923375;0,3902314;0,3885956;0,3871755;0,3856705;0,3841614;0,3829299;0,3820775;0,3815143;0,3810472;0,380478;0,3798345;0,3795856;0,3801768;0,3817503;0,3843652;0,3887554;0,3947011;0,4011815;0,407203;0,4111191;0,4107096;0,4033793;0,3958666;0,3928813;0,3934509;0,3964049;0,3993809;0,4021739;0,4039501;0,404964;0,4071493;0,4102606;0,4139358;0,4172383;0,4201579;0,4239314;0,4280238;0,4317291;0,4335979;0,4350017;0,4374327;0,4406629;0,4437292;0,4469917;0,4513938;0,4569986;0,4636438;0,4703341;0,47627;0,4813909;0,4864474;0,4917063;0,4967424;0,5016663;0,5050749
13;5,756226078;4,88;5,30900524;0,4797295;0,226084824;0,14956347;0,9672914;0,9796399;0,9844701;0,9843454;0,9826121;0,9804834;0,9793588;0,9783718;0,9766021;0,9723499;0,9647186;0,9537076;0,9403848;0,9256308;0,9100728;0,8942033;0,8787625;0,8637379;0,8491021;0,8353779;0,8224182;0,8100501;0,7983695;0,7873226;0,7765583;0,7657832;0,7548005;0,7433407;0,7315194;0,7198259;0,7084996;0,697318;0,6860374;0,6748338;0,6639323;0,6533283;0,6430144;0,6330228;0,6233525;0,6139846;0,6048931;0,5960993;0,5876231;0,5793318;0,5711675;0,5632907;0,5556893;0,5482199;0,5409751;0,5341946;0,5278138;0,5216827;0,5157655;0,510051;0,5045044;0,4990866;0,4937909;0,4885847;0,4834636;0,4784596;0,4736042;0,4688701;0,4642267;0,4596822;0,455261;0,4509169;0,4465201;0,4420842;0,4377276;0,4334584;0,4292483;0,4250901;0,4209738;0,4168963;0,4128777;0,4089232;0,4050447;0,4012194;0,3973677;0,393574;0,3899845;0,3863938;0,3838861;0,3810449;0,3776329;0,3743418;0,3711446;0,368048;0,3651113;0,3622454;0,3593476;0,3564619;0,3537127;0,3511359;0,3486748;0,3462476;0,3439099;0,3416836;0,3395793;0,3374878;0,3354481;0,3335268;0,3317427;0,3300751;0,3285205;0,3270906;0,3257655;0,3245124;0,3233074;0,322212;0,3211285;0,3201172;0,3192121;0,3187188;0,3192649;0,3220231;0,327801;0,3346264;0,3391915;0,3372931;0,3319315;0,3290963;0,3275794;0,3264724;0,3253387;0,3238618;0,3219747;0,3200537;0,3182078;0,3164081;0,3146785;0,3131378;0,3116528;0,3103505;0,3092858;0,3082585;0,3071587;0,3060523;0,3050339;0,304062;0,303162;0,3024192;0,3018785;0,3011778;0,3003288;0,2996897;0,2992372;0,298932;0,2984704;0,2980992;0,2977522;0,2973078;0,2969549;0,2969075;0,2970785;0,2973527;0,2975221;0,2975931;0,2979916;0,2983392;0,2986002;0,2987961;0,2988796;0,2988609;0,2987536;0,2984908;0,2981844;0,2979288;0,2977552;0,2977567;0,2980831;0,29915;0,3015872;0,3073551;0,317584;0,3344471;0,3568826;0,3754985;0,3842497;0,3862844;0,3849356;0,3817575;0,3775754;0,3729694;0,3684065;0,3639594;0,3595981;0,3553122;0,3512943;0,3478051;0,3449151;0,3426144;0,3409597;0,3398496;0,3390577;0,3382971;0,3375858;0,3371786;0,3372646;0,3376241;0,3379924;0,3379397;0,3375015;0,3374164;0,3382766;0,3405681;0,3450974;0,3529853;0,3620124;0,3696688;0,3747291;0,3768559;0,3756334;0,3661929;0,3572682;0,3544987;0,3554317;0,3580862;0,3605473;0,3630487;0,3646055;0,3653469;0,3675013;0,3709183;0,3752362;0,3790855;0,3822466;0,3860974;0,3901823;0,3936431;0,3948009;0,3955973;0,3979694;0,4011678;0,4037423;0,4064018;0,410398;0,4159144;0,4226447;0,429713;0,4355648;0,4401476;0,4445986;0,4494381;0,4542961;0,4592977;0,4628688
14;7,425782579;4,47;0,62569321;0,18700399;0,226309896;0,13702808;1,0132618;1,0258;1,0306726;1,0301332;1,0279459;1,0257479;1,025309;1,0256107;1,0242479;1,0194417;1,0103594;0,9975373;0,9822285;0,9658792;0,9491374;0,9325422;0,9166132;0,9012853;0,8866157;0,8730003;0,8602126;0,8481656;0,8371406;0,8270831;0,8171754;0,8067548;0,7955871;0,7830741;0,7697062;0,7566757;0,7443738;0,7324895;0,7206837;0,7090997;0,6980262;0,6874566;0,6773009;0,6675525;0,6581705;0,6490838;0,6402578;0,6316886;0,6233547;0,6151126;0,6069263;0,5989952;0,5912846;0,5836079;0,5760718;0,5689688;0,5622176;0,5556592;0,5492719;0,5430512;0,5369763;0,5310034;0,525129;0,5193395;0,5136192;0,5080165;0,5025571;0,4971929;0,4919089;0,4867188;0,4816369;0,476639;0,4716255;0,4665806;0,4616079;0,4567264;0,4519162;0,4471637;0,4424717;0,4378308;0,4332649;0,4287789;0,4243851;0,4200647;0,415724;0,4114553;0,407405;0,4033533;0,4003769;0,3970696;0,3931961;0,3894899;0,3858328;0,3822885;0,3789181;0,3756284;0,3723081;0,3690018;0,3658134;0,3627756;0,3598635;0,357;0,3542162;0,3515296;0,3489705;0,3464491;0,3439873;0,341647;0,3394462;0,3373571;0,3353818;0,3335418;0,3318111;0,3301669;0,328593;0,3271357;0,3257556;0,3244688;0,3233052;0,322539;0,3229305;0,3252111;0,329066;0,3342254;0,3393451;0,3389755;0,3345699;0,3324603;0,3313818;0,3303851;0,3290654;0,327224;0,3249499;0,3227283;0,3206397;0,3185617;0,3165764;0,31477;0,3129815;0,3113889;0,3100376;0,3087393;0,3073487;0,3059744;0,3047434;0,3035809;0,3024803;0,3015394;0,3008437;0,3000131;0,2990496;0,298334;0,2978511;0,2975428;0,2970957;0,296726;0,2963573;0,2959099;0,2955267;0,2954814;0,2956975;0,2960587;0,296294;0,2963182;0,2966683;0,297004;0,2972758;0,2974835;0,2975545;0,297527;0,2973776;0,2970502;0,2966755;0,29634;0,2960576;0,2959469;0,296231;0,2972867;0,2997226;0,3054981;0,3162396;0,3344712;0,3587502;0,3795698;0,3904034;0,3939026;0,393271;0,3901062;0,385483;0,3802706;0,3749431;0,3696582;0,3643615;0,3591426;0,3543355;0,3502842;0,347011;0,3444216;0,3425398;0,3411814;0,3400639;0,3388788;0,3376936;0,3367673;0,3362109;0,3358895;0,3356335;0,3352964;0,334907;0,3350843;0,3362984;0,3387546;0,3426669;0,3484471;0,3551213;0,361121;0,3656129;0,3687678;0,3691409;0,3602668;0,3519334;0,3497398;0,3511677;0,3549097;0,3584391;0,3617865;0,3635913;0,3637705;0,3654747;0,3684635;0,3722564;0,3751863;0,3769382;0,3796756;0,3832452;0,3872221;0,3892981;0,3907664;0,3934611;0,3968728;0,3994421;0,4018008;0,4054556;0,4106828;0,417084;0,4238845;0,429719;0,4345243;0,4396298;0,4451519;0,4507373;0,45598;0,4597134
15;7,653449375;6,07;12,67338907;1,94353808;1,044953028;0,28812259;1,0448029;1,0571865;1,0595595;1,0552962;1,0487356;1,0419821;1,0388304;1,0378006;1,035287;1,0287532;1,0169432;1,0006393;0,9817618;0,962094;0,9421569;0,9223161;0,9031806;0,8847526;0,8672394;0,8513561;0,8369811;0,824086;0,8126555;0,8024824;0,7928295;0,7830901;0,773083;0,7628427;0,7524827;0,7422187;0,7323406;0,7226303;0,7127147;0,7027699;0,6931339;0,6838617;0,6749094;0,666319;0,6580943;0,6502148;0,6426706;0,6354993;0,6286648;0,6219863;0,6154612;0,6092975;0,6034417;0,597651;0,5919349;0,5867257;0,5818782;0,5772154;0,5727012;0,5683248;0,564043;0,5598007;0,5555949;0,5513965;0,5471949;0,5430313;0,53893;0,534842;0,5307532;0,526699;0,5227054;0,5187475;0,5147204;0,5106184;0,5065375;0,5024962;0,4984787;0,4944732;0,4904832;0,4865112;0,4825589;0,47864;0,4747683;0,4709336;0,4670485;0,4631824;0,4595135;0,4558319;0,4528809;0,4496744;0,4460068;0,4425172;0,43905;0,4356737;0,432432;0,4292832;0,4260812;0,4228919;0,4198107;0,4169116;0,4141312;0,4114;0,4087691;0,4062213;0,4038274;0,4014696;0,3991737;0,3970055;0,3949817;0,3930463;0,3912164;0,3895181;0,387908;0,3864018;0,3849624;0,3836172;0,3823554;0,3811654;0,3800595;0,3793779;0,3796506;0,3814098;0,3853188;0,3910068;0,3958471;0,3958101;0,3922777;0,3905789;0,3897769;0,3889883;0,3876322;0,3855197;0,3829615;0,3806291;0,3784948;0,376476;0,3746036;0,3728931;0,3710684;0,3693955;0,3680803;0,3667445;0,3651802;0,3636422;0,3623116;0,3610821;0,3599242;0,3589343;0,3581658;0,3572723;0,3562521;0,3554442;0,3548416;0,354409;0,3538476;0,3534113;0,3530064;0,3524727;0,3519692;0,3517866;0,3518617;0,3520916;0,3522056;0,352155;0,3523969;0,3526097;0,3527669;0,3528607;0,3528371;0,3526899;0,3524356;0,3520258;0,3515791;0,3511655;0,3508056;0,3506522;0,3509323;0,3519469;0,3543661;0,3602605;0,3713991;0,3902633;0,4149764;0,4352696;0,4453109;0,4484332;0,4476782;0,4444748;0,4398124;0,4345244;0,4290876;0,4236874;0,41821;0,4127546;0,4076986;0,4033643;0,3998122;0,3969698;0,3948522;0,3932437;0,3918375;0,3903614;0,38886;0,3876355;0,3867982;0,3862259;0,3857371;0,3851619;0,3846116;0,3845929;0,3853866;0,387307;0,3906592;0,3960843;0,402696;0,408753;0,4131692;0,4155221;0,4149772;0,4083717;0,402536;0,4013256;0,403636;0,4089039;0,4135993;0,4179583;0,4195297;0,4180714;0,4187566;0,4210418;0,4244232;0,427205;0,4288688;0,4315154;0,4350679;0,4391108;0,441282;0,4428948;0,4453996;0,448509;0,4513974;0,4543032;0,4582027;0,463282;0,4693758;0,4756663;0,4809366;0,4853732;0,4901037;0,4951303;0,50036;0,5053404;0,5087671
16;8,387042384;5,06;2,54723779;0,452575;0,307560888;0,18171531;1,07973;1,0928583;1,0964839;1,0934752;1,0875152;1,0825281;1,0806917;1,0808302;1,0796202;1,0740136;1,0626854;1,0460279;1,0262083;1,0049498;0,9832181;0,9616733;0,9410718;0,921719;0,9036096;0,8871749;0,8725107;0,8598337;0,8492596;0,8399027;0,8302504;0,819496;0,8079067;0,7958127;0,7835485;0,7714136;0,7598195;0,7486364;0,7376704;0,7270114;0,7168359;0,7071173;0,6978483;0,6890464;0,6807095;0,6727787;0,6652403;0,6581239;0,6514534;0,6450613;0,6387851;0,6328288;0,627164;0,6216641;0,6162906;0,6113392;0,606782;0,6024283;0,5982344;0,5941842;0,5902396;0,5863383;0,5824727;0,578609;0,5747402;0,5708841;0,5670657;0,5632633;0,5594611;0,5556872;0,5519666;0,5482786;0,5444324;0,5404056;0,5364049;0,5324368;0,5284657;0,5244783;0,5204787;0,5164666;0,5124601;0,5084601;0,5044833;0,5005163;0,4964694;0,4924389;0,4885836;0,484678;0,4815797;0,4782436;0,4744111;0,4707863;0,4672439;0,4638367;0,4606634;0,4575395;0,4543097;0,451041;0,4479279;0,4449932;0,4421773;0,4394325;0,4367942;0,4343071;0,4319885;0,4297257;0,4275165;0,4254778;0,4236476;0,4219843;0,4204987;0,4192067;0,4180948;0,4171284;0,4162882;0,4156167;0,4150696;0,4147663;0,4147971;0,4157056;0,4186342;0,4248769;0,4348626;0,4480782;0,4596184;0,46014;0,4544798;0,4523709;0,4517282;0,4511047;0,4499533;0,4478497;0,4447938;0,4416704;0,4387122;0,4358253;0,433155;0,4307975;0,4284863;0,4264899;0,4249482;0,4234777;0,4218591;0,4202779;0,4189311;0,4176981;0,4165945;0,415703;0,4150929;0,4144078;0,4136991;0,4132783;0,4131937;0,4133859;0,4135394;0,413846;0,4141993;0,4144297;0,4146963;0,415408;0,4164853;0,4177282;0,4186892;0,4193255;0,4203796;0,4215352;0,4225952;0,4235211;0,4242893;0,4248506;0,4251148;0,42512;0,4250721;0,4250632;0,4251993;0,4257191;0,4268693;0,4294994;0,4349547;0,4466149;0,4667901;0,4989243;0,539952;0,5737388;0,5899783;0,5945686;0,5933299;0,5886277;0,5819632;0,5743752;0,5664867;0,5584528;0,5503258;0,5423065;0,5348505;0,5284236;0,5231279;0,5189489;0,5158118;0,5134532;0,5115454;0,5096726;0,5079184;0,5065924;0,5058323;0,505437;0,5051225;0,5046342;0,5043072;0,5049014;0,5068797;0,5105082;0,5164859;0,5259238;0,5373778;0,5480029;0,5558237;0,5599189;0,557483;0,5442404;0,5331149;0,5302047;0,5326898;0,5387467;0,54433;0,5495342;0,5524403;0,5531044;0,5559473;0,5608331;0,566836;0,5721765;0,5764823;0,5817676;0,5878153;0,5935478;0,5968328;0,5997241;0,6042334;0,6094375;0,6138855;0,6185055;0,6247593;0,6329782;0,6429429;0,6528977;0,6612893;0,6682552;0,6752737;0,6831291;0,6911331;0,6986146;0,7042201
17;7,071634231;5,22;3,4023921;0,28222577;0,24026436;0,16248162;1,0055699;1,0186725;1,0230275;1,0206347;1,0148468;1,0094539;1,0065374;1,0056274;1,0033387;0,997059;0,985437;0,9689681;0,9495243;0,9287255;0,9075418;0,8862975;0,865927;0,846652;0,828631;0,8123841;0,7976574;0,7844601;0,7728267;0,7623943;0,7523317;0,7419155;0,7310223;0,7197803;0,7082902;0,696816;0,6856713;0,674751;0,6640353;0,6536462;0,6436641;0,6340327;0,6247535;0,6158621;0,6073704;0,59927;0,5915282;0,5841405;0,5770698;0,5702305;0,563583;0,5572206;0,5510973;0,5450211;0,539162;0,5337257;0,5286496;0,5237857;0,5190871;0,5145383;0,5101085;0,5057327;0,5014029;0,4970964;0,4928069;0,4885589;0,484377;0,4802341;0,4761046;0,4720053;0,4679684;0,4639698;0,4598748;0,4556786;0,4515209;0,4474143;0,4433292;0,4392577;0,435197;0,431138;0,4271041;0,4230984;0,4191329;0,4151881;0,4111784;0,4072003;0,403405;0,3995461;0,3968627;0,3937867;0,3900171;0,3864;0,3829027;0,3794364;0,3761257;0,372907;0,3696613;0,3664249;0,3633057;0,3603603;0,3575357;0,3547709;0,3520979;0,3495287;0,3470926;0,3446983;0,3423411;0,3401175;0,3380428;0,3360804;0,3342385;0,3324908;0,3308468;0,3293107;0,3278183;0,3264385;0,3251242;0,3238782;0,3226668;0,3218359;0,3218052;0,3232647;0,3276339;0,3345109;0,3402476;0,3388961;0,3337441;0,3309883;0,329594;0,3285019;0,3273367;0,3258112;0,3238491;0,3217874;0,319731;0,3176974;0,3157349;0,3139162;0,312187;0,3106197;0,3092722;0,3079894;0,3067051;0,3054607;0,304297;0,303181;0,3021137;0,3012184;0,3005223;0,2996836;0,2987218;0,2979932;0,2974756;0,2971253;0,2966687;0,2962921;0,2959183;0,2954278;0,2949776;0,2948507;0,2949708;0,2952116;0,2953188;0,2952928;0,2955876;0,2958248;0,2959828;0,2960438;0,2959791;0,2958114;0,2955246;0,2951092;0,2946374;0,2942173;0,293885;0,2936928;0,2938595;0,2948296;0,2970795;0,3025849;0,312955;0,3306767;0,3541043;0,3734483;0,382882;0,3856678;0,3847618;0,3815353;0,3769597;0,3718848;0,36673;0,361631;0,3565216;0,3514852;0,3468665;0,3429623;0,3398467;0,3374101;0,3357227;0,334534;0,3335894;0,332542;0,3314379;0,3305856;0,3301107;0,3299459;0,3297786;0,329432;0,3289521;0,3288015;0,3293796;0,3309002;0,3338675;0,3394497;0,3466364;0,3539078;0,3602354;0,3630216;0,3600935;0,3511302;0,3435039;0,340441;0,3405584;0,3426959;0,3449412;0,3470819;0,348645;0,3499426;0,3522959;0,3555877;0,3594731;0,3628895;0,3657898;0,3695399;0,3733857;0,3764902;0,3774294;0,3782821;0,380401;0,3832207;0,3857849;0,388723;0,393037;0,3989848;0,4059246;0,4126464;0,4179339;0,4220729;0,4261947;0,430754;0,4352776;0,439564;0,4423646
18;11,05711856;4,89;1,89881805;0,35373262;0,678817152;0,22688099;1,1219871;1,1351919;1,1398039;1,1390665;1,1362377;1,1338224;1,1333314;1,1338383;1,1326201;1,1276319;1,1180542;1,1044631;1,0886467;1,0718528;1,0547582;1,0377458;1,0212719;1,0053883;0,9901378;0,9759229;0,9627566;0,950763;0,940155;0,9305367;0,9208615;0,9104001;0,8991657;0,8873821;0,8752713;0,8631626;0,8514349;0,8400201;0,8288846;0,818109;0,8077276;0,7976775;0,7879555;0,7785724;0,7695189;0,7607428;0,75222;0,7439715;0,7359616;0,7279968;0,7201024;0,7125325;0,7051659;0,6978207;0,6905686;0,6837577;0,6772618;0,6709419;0,6647715;0,6587389;0,6528242;0,6469668;0,641166;0,6354007;0,6296667;0,6240182;0,6184828;0,6129988;0,6075476;0,6021802;0,5969735;0,5916519;0,5862592;0,5809042;0,5755848;0,5703177;0,5650865;0,5598843;0,5547166;0,5495907;0,5445201;0,539508;0,5345774;0,5297027;0,5247927;0,519952;0,5154078;0,5107598;0,5070754;0,5031779;0,4985776;0,4942175;0,4899462;0,4857487;0,481765;0,4778361;0,4738979;0,4699522;0,4661235;0,4624403;0,45889;0,4554092;0,452029;0,448816;0,445669;0,4424782;0,4394202;0,4365571;0,4338582;0,4312645;0,4288342;0,4265551;0,4244202;0,422423;0,420545;0,4188777;0,4171876;0,4155907;0,4143046;0,4134407;0,4137054;0,4184574;0,4352965;0,4373041;0,4341934;0,4347735;0,4323161;0,4315445;0,43125;0,4306068;0,4289321;0,4259939;0,4224313;0,4191902;0,4162107;0,4134058;0,41087;0,4085792;0,4061001;0,4038848;0,4021572;0,4003921;0,3982441;0,3961577;0,3943542;0,3926766;0,3910616;0,3896452;0,3884978;0,3872845;0,3860295;0,3850776;0,3844051;0,3839857;0,3834762;0,3830875;0,382771;0,3823822;0,3820637;0,3821525;0,3826169;0,3832973;0,3837683;0,3837861;0,384214;0,3847482;0,3852284;0,3855429;0,3857504;0,3858365;0,3857261;0,3853521;0,3849099;0,3845089;0,3841684;0,3841016;0,3847517;0,3865991;0,3905756;0,3995312;0,4155426;0,4415579;0,475302;0,5044491;0,5206103;0,5268701;0,5269774;0,5230613;0,5168619;0,5096446;0,5021019;0,4945261;0,4870148;0,4796865;0,4729765;0,4672879;0,4627164;0,4591367;0,4565446;0,4547456;0,4536409;0,4526326;0,4511386;0,4498453;0,448385;0,4470752;0,4463295;0,4460429;0,4463043;0,4475813;0,4498954;0,4550359;0,4684726;0,4964834;0,499674;0,4852383;0,481208;0,4817496;0,4828655;0,4761481;0,4694612;0,4684745;0,4729958;0,4821546;0,4904377;0,4981361;0,501965;0,5015391;0,5039325;0,5083826;0,5150016;0,5214496;0,5226194;0,5215476;0,5250288;0,5314498;0,5342817;0,5357652;0,5391256;0,5455278;0,550793;0,5540667;0,5582728;0,5641918;0,5728907;0,58124;0,5878341;0,5945154;0,6018013;0,6093795;0,6182486;0,6276339;0,6342398
19;11,36067429;5,13;1,72908271;0,23660621;0,18315234;0,12640649;1,1721579;1,187396;1,1962422;1,2005804;1,2041525;1,2077341;1,2117558;1,2149357;1,2160065;1,2138348;1,2081575;1,1992993;1,1887393;1,1771597;1,1651229;1,1531258;1,1416157;1,1305519;1,1198418;1,109591;1,0995646;1,0898561;1,0808077;1,0722306;1,0632505;1,0531268;1,0418791;1,0296601;1,0168225;1,003973;0,9914911;0,9791575;0,9667487;0,9543996;0,9423313;0,9305363;0,9189539;0,9075793;0,8963815;0,8852933;0,8742609;0,86331;0,8524615;0,8414997;0,8303971;0,8194189;0,8085706;0,7977588;0,7870329;0,7766445;0,7665342;0,7565832;0,7467534;0,7370588;0,7274934;0,7180205;0,7086484;0,6993686;0,6901759;0,6811255;0,6722817;0,6636062;0,6550568;0,646625;0,6383298;0,6301587;0,6220632;0,6140563;0,6061438;0,5983548;0,5906839;0,583123;0,5756828;0,5683626;0,5611825;0,5541518;0,5472822;0,5405434;0,5338223;0,527258;0,5210479;0,5148025;0,5096135;0,5042951;0,4983494;0,4926597;0,4871794;0,4818118;0,4766724;0,4716722;0,4666907;0,4617328;0,456904;0,4522885;0,4478417;0,4434549;0,4391549;0,4349749;0,4309643;0,427032;0,4231904;0,4195493;0,416065;0,4127066;0,4094599;0,4063702;0,4034211;0,4006383;0,397993;0,3955276;0,3932008;0,3909757;0,3887593;0,3869132;0,3858804;0,3859274;0,388014;0,3916721;0,395431;0,3979695;0,3983574;0,3986044;0,3985172;0,3978463;0,396256;0,3936718;0,3904717;0,387345;0,3843259;0,3813711;0,3785948;0,3760107;0,3733872;0,370991;0,3689565;0,3669853;0,3648772;0,362793;0,3609027;0,3591017;0,3573835;0,3558625;0,3546006;0,353267;0,3518628;0,3507637;0,34999;0,3494756;0,3488536;0,3482727;0,3477356;0,3471613;0,3466542;0,3465839;0,34691;0,3474618;0,3477673;0,3475265;0,347671;0,3479834;0,3482305;0,348259;0,3481533;0,347925;0,3475249;0,3469306;0,3462688;0,3456327;0,3451001;0,3448807;0,3452809;0,3467489;0,350044;0,3575523;0,3716557;0,3951373;0,4244696;0,4498711;0,4663306;0,4747983;0,4767354;0,4739077;0,4683385;0,461551;0,4544196;0,447234;0,4400688;0,4330357;0,4265707;0,4210823;0,4166795;0,413227;0,4106941;0,408758;0,4070142;0,4050452;0,4029262;0,4009985;0,3994304;0,3981471;0,3970502;0,3960748;0,3953009;0,3950808;0,3954336;0,396198;0,3973112;0,3992931;0,401589;0,4034757;0,4049729;0,4063692;0,4073341;0,4055583;0,4038143;0,4045027;0,4079269;0,4143189;0,4204683;0,4259285;0,4282805;0,4274183;0,4283817;0,4309013;0,4344168;0,4363869;0,4363317;0,4380144;0,4411378;0,4452199;0,4472524;0,448796;0,4511511;0,4542798;0,4576046;0,4609891;0,4652703;0,4705588;0,4768298;0,4836513;0,4905111;0,4971523;0,5041369;0,5111001;0,5176408;0,5236265;0,52795
20;6,869263746;4,96;1,21230118;0,31281984;0,233737272;0,15013761;1,0408362;1,0554762;1,0608435;1,0597616;1,055548;1,0519307;1,0514461;1,0524747;1,0519836;1,046986;1,0367019;1,0216298;1,0035448;0,9843231;0,9648167;0,9453416;0,9266949;0,9088503;0,8920448;0,8766497;0,8625966;0,8497157;0,8381222;0,827579;0,8171958;0,8064448;0,7950627;0,7826494;0,7695937;0,7566953;0,7443429;0,73224;0,7201167;0,7081282;0,6965176;0,6853219;0,6745068;0,6641134;0,654128;0,6444912;0,6351936;0,6262516;0,6176801;0,6093151;0,6010827;0,5932074;0,5856496;0,5782478;0,5710734;0,5643793;0,5581289;0,5521567;0,5464178;0,5408874;0,5355296;0,5302846;0,5251242;0,520022;0,5149561;0,5099636;0,5050843;0,5002754;0,4954969;0,4907527;0,4860806;0,4814669;0,4767792;0,4719952;0,467263;0,4625967;0,4579631;0,4533548;0,4487669;0,4441969;0,4396587;0,435158;0,4306985;0,4262734;0,4217914;0,417341;0,413121;0,4088512;0,4055847;0,4020118;0,397691;0,3936483;0,3897927;0,3859154;0,3822403;0,3786758;0,3750736;0,3714915;0,3680495;0,3647659;0,3616316;0,3585758;0,3556341;0,3528245;0,350179;0,347555;0,3449933;0,342591;0,3403753;0,33832;0,3364066;0,3346559;0,3330056;0,3314446;0,3299749;0,3286498;0,3274146;0,3263309;0,3253913;0,3248819;0,325617;0,3286965;0,3340321;0,3416257;0,3489524;0,3477949;0,3414093;0,3383163;0,3368915;0,335775;0,3346823;0,3333212;0,3313761;0,3291872;0,3270182;0,3248531;0,3227039;0,3207588;0,3189728;0,3173702;0,3159685;0,3146621;0,3134234;0,3122513;0,3111589;0,3100875;0,3090544;0,3081821;0,3075478;0,3067909;0,3059261;0,3053007;0,3049098;0,3047067;0,3044053;0,3042254;0,3041033;0,3039085;0,3037528;0,30392;0,3043606;0,3049798;0,3053947;0,3055093;0,3059676;0,3064653;0,3068484;0,3070841;0,307209;0,3072574;0,3071797;0,3068699;0,3064832;0,306142;0,3059216;0,3059049;0,3062477;0,3074859;0,310371;0,317179;0,3292129;0,3488608;0,3752128;0,3977379;0,4090076;0,4124104;0,4115654;0,4080431;0,4030204;0,3973953;0,3916997;0,3860382;0,3804362;0,374979;0,3700033;0,3658538;0,3625729;0,3601297;0,3584999;0,3575294;0,3568507;0,3560355;0,3550918;0,3544185;0,3542144;0,3542402;0,3542786;0,3540273;0,3534673;0,3533707;0,3543736;0,3567628;0,3609985;0,3677428;0,3759326;0,3836917;0,389631;0,3928046;0,391495;0,3796786;0,3690834;0,365517;0,365854;0,3678836;0,3703023;0,3726511;0,3747965;0,3771347;0,3804888;0,3848249;0,3897046;0,3934137;0,3961456;0,4000527;0,4043418;0,4082778;0,409753;0,4109471;0,4139131;0,4176024;0,4203807;0,4230669;0,4274049;0,4335953;0,4411493;0,4488626;0,4551098;0,4599143;0,4647198;0,4702376;0,4758018;0,4807954;0,4840956
21;8,918264907;4,45;1,08198045;0,20347772;0,43495164;0,19836537;1,041537;1,0545135;1,058772;1,0575008;1,0530367;1,0490247;1,0472029;1,0468659;1,0450965;1,0395292;1,0292246;1,0145912;0,9973313;0,978996;0,9603382;0,9417372;0,9238399;0,9066971;0,8903072;0,8751647;0,861237;0,8485848;0,8374519;0,8273789;0,817474;0,806955;0,7957929;0,7841951;0,7723807;0,7606246;0,7492786;0,7382269;0,7272795;0,716534;0,7061736;0,6962118;0,6866367;0,6774631;0,6686623;0,660163;0,651943;0,6440396;0,6364741;0,6290489;0,6216471;0,6145195;0,6076519;0,600898;0,5942158;0,5879406;0,5820385;0,5763279;0,5707761;0,5653847;0,5601132;0,5548993;0,549746;0,544626;0,5395346;0,5345089;0,5296067;0,5247871;0,5200036;0,5152607;0,5105994;0,5060072;0,5013518;0,4966285;0,4919603;0,4873641;0,4828127;0,478295;0,4738225;0,4693932;0,4650163;0,4606886;0,4564317;0,4522438;0,4480229;0,4438504;0,4399528;0,4360472;0,4328315;0,4294484;0,425499;0,4218313;0,4182681;0,4147324;0,4113997;0,4081338;0,4048374;0,4015378;0,3983448;0,3953054;0,3923943;0,3895333;0,3867907;0,3841779;0,3816876;0,3792165;0,376773;0,3744743;0,3723536;0,3703353;0,3684654;0,3667338;0,3651025;0,3635669;0,3620931;0,3607494;0,3595012;0,3583835;0,3573864;0,3568211;0,3574235;0,3602172;0,3655462;0,372919;0,3791882;0,3786238;0,3738986;0,3717385;0,3707652;0,3698709;0,3685341;0,3664775;0,3638464;0,3613569;0,3590987;0,3569552;0,3549783;0,3532058;0,3513505;0,3496785;0,3483579;0,3470441;0,3455408;0,3440716;0,3428104;0,341634;0,3404919;0,3395264;0,3388104;0,3379984;0,3371041;0,3364721;0,3360586;0,3358123;0,3354455;0,3351787;0,3349373;0,3345984;0,3343304;0,3343924;0,3347273;0,3352065;0,335577;0,3358053;0,3363583;0,3368798;0,3373106;0,3376779;0,3379118;0,3380381;0,3380222;0,3377953;0,3375159;0,3372729;0,3371285;0,3372371;0,3377493;0,3391104;0,3421392;0,3490523;0,3617208;0,3830661;0,4114482;0,4350178;0,4462258;0,4491169;0,4477879;0,4439937;0,4388441;0,4331129;0,427294;0,4214705;0,415678;0,409989;0,404767;0,4003178;0,3967348;0,3939192;0,3918771;0,3904904;0,3894297;0,3883525;0,3872427;0,3864284;0,3860377;0,3859071;0,3857782;0,3854758;0,3851376;0,3853366;0,3864922;0,3890225;0,3933658;0,4002764;0,4086516;0,4162209;0,4216315;0,4244254;0,423191;0,4139532;0,4058489;0,4037424;0,4057519;0,4107393;0,415352;0,419862;0,4219266;0,4213316;0,4228708;0,4260791;0,4303151;0,4338503;0,4363919;0,4397728;0,4439369;0,4482626;0,4506246;0,4522723;0,4551052;0,4586909;0,4617595;0,4648695;0,4692228;0,4752209;0,4827673;0,4903245;0,4966276;0,5016975;0,5071834;0,5134555;0,51981;0,5255701;0,5296671
22;4,339632682;4,73;0,67773367;0,21162407;0,191086128;0,15233848;0,955955;0,9647152;0,9647746;0,9586406;0,9495469;0,9411703;0,9361535;0,9341111;0,9313496;0,9250166;0,9129736;0,8955986;0,875254;0,8536019;0,8316154;0,8097606;0,7889255;0,76951;0,7516423;0,735888;0,7221843;0,7104796;0,7007357;0,6922374;0,6839142;0,6750887;0,6658015;0,6561512;0,6463832;0,6367312;0,6274602;0,6184733;0,6097192;0,601313;0,5932996;0,5856454;0,5783465;0,5714377;0,5649357;0,5588288;0,5531075;0,5477407;0,5427046;0,537945;0,5334783;0,5293631;0,5255088;0,521729;0,5182045;0,5151215;0,5123941;0,5098794;0,5075169;0,5052706;0,5030914;0,5009117;0,4987057;0,4964427;0,4941159;0,4917627;0,4893917;0,4869754;0,4845168;0,4820585;0,4796484;0,4772781;0,4747497;0,4720461;0,4693871;0,4667923;0,4642121;0,4616331;0,4590466;0,456449;0,4538558;0,4512599;0,4486752;0,4460876;0,4434308;0,4407728;0,4382453;0,4356459;0,4339945;0,4319976;0,4293799;0,4269004;0,4245246;0,4221392;0,419863;0,4176509;0,4154019;0,4131298;0,4109721;0,4089741;0,4070815;0,4052514;0,4034947;0,4018232;0,400287;0,3987588;0,3972494;0,3958555;0,3945925;0,3934321;0,3923838;0,3914498;0,3905559;0,3897629;0,3889856;0,3882958;0,3876317;0,3869945;0,386402;0,3861378;0,3866049;0,3886141;0,3937833;0,4022934;0,4094108;0,4073671;0,4003346;0,3966591;0,3952256;0,3944404;0,3937816;0,3929294;0,3917298;0,390431;0,389136;0,3879116;0,3867657;0,3857603;0,3848366;0,3840232;0,3833819;0,3827848;0,3821641;0,3815601;0,3810253;0,3804981;0,3800149;0,3796888;0,3795463;0,3792331;0,3787649;0,3784994;0,3783658;0,3783153;0,3781274;0,3780766;0,3780644;0,3779221;0,3778405;0,3780072;0,3783534;0,3788219;0,3792641;0,3796964;0,3804044;0,380991;0,3815233;0,3819931;0,3823034;0,3825412;0,3826902;0,3827294;0,3827384;0,3828196;0,3829696;0,3831866;0,3836346;0,3847169;0,3866594;0,3911395;0,3992122;0,4128645;0,4319929;0,4479547;0,4546733;0,4558512;0,4545829;0,4519601;0,4486211;0,4449701;0,4413843;0,4379268;0,4345485;0,4312537;0,4282049;0,4256068;0,4234628;0,4217522;0,4206465;0,4200745;0,4197646;0,4194851;0,4192274;0,4192189;0,4195996;0,4202265;0,4207046;0,4207417;0,4204274;0,420224;0,4205924;0,4220608;0,4249772;0,4306392;0,4389389;0,4481065;0,4562227;0,4598806;0,4565788;0,4465481;0,4377729;0,433473;0,432246;0,4329624;0,4342499;0,4354672;0,4364509;0,4375967;0,4399535;0,443298;0,447468;0,4516716;0,4556171;0,4603864;0,4648647;0,4680612;0,4686284;0,4687267;0,4703338;0,4726169;0,4747719;0,4772499;0,4814173;0,487391;0,494395;0,5010022;0,5055505;0,5083928;0,5112239;0,5147634;0,5184817;0,5220402;0,5243396
23;4,061373265;4,8;1,49896287;0,2045639;0,14601546;0,11234006;0,8650267;0,873739;0,8721146;0,8623186;0,8482231;0,8358765;0,8300052;0,8282174;0,8255481;0,8176749;0,8021542;0,779964;0,7545743;0,7285162;0,7025933;0,6771844;0,6532028;0,6311439;0,6113813;0,5944966;0,580284;0,568414;0,558675;0,5504431;0,5427266;0,5348296;0,5265708;0,5177132;0,5084496;0,4993864;0,4908537;0,4826134;0,474446;0,4664471;0,4588208;0,4515684;0,4446463;0,4381038;0,4319629;0,4261929;0,4207989;0,415781;0,4111237;0,4067253;0,4025527;0,3987394;0,395202;0,3917509;0,3884908;0,3856873;0,3832662;0,3810687;0,3790437;0,3771605;0,3753616;0,3735714;0,3717642;0,3699039;0,3679821;0,3660161;0,3640182;0,3619554;0,3598197;0,3576512;0,3555;0,3533587;0,3510274;0,3484892;0,3459639;0,3434704;0,3409692;0,3384447;0,3358909;0,3333037;0,3306972;0,3280699;0,3254457;0,3228073;0,3200797;0,3173321;0,3147147;0,312035;0,3105941;0,3086484;0,3059434;0,3033544;0,3007937;0,2982589;0,2958865;0,2935553;0,2911804;0,2888261;0,2865816;0,2844817;0,2825082;0,2805865;0,2787648;0,2770448;0,2754536;0,2738906;0,272354;0,270935;0,26963;0,2684642;0,2673956;0,2664433;0,2655368;0,2647105;0,2639129;0,2631988;0,2624921;0,2618179;0,2611921;0,2609361;0,2614498;0,2634534;0,2687574;0,2775736;0,2846856;0,2823433;0,2748752;0,2707459;0,2690274;0,2680828;0,2673081;0,2663633;0,2650869;0,2637391;0,2624521;0,2611777;0,2599694;0,2588734;0,2578569;0,2569684;0,2562208;0,2555077;0,2548053;0,2541139;0,2535002;0,2529112;0,2523765;0,2520016;0,2518189;0,251474;0,25096;0,2506325;0,2504445;0,2503516;0,2501381;0,2500521;0,2499804;0,2497876;0,2496454;0,2497366;0,2499955;0,2503284;0,2506188;0,250935;0,251519;0,2519664;0,2523097;0,2526169;0,2527871;0,252877;0,2528908;0,2528062;0,2526692;0,2526031;0,2526067;0,2527236;0,253082;0,2539805;0,2558886;0,26059;0,268722;0,2817456;0,2995373;0,3140877;0,3200705;0,3209865;0,3196804;0,3171572;0,3139342;0,3104461;0,3069592;0,3035721;0,3002447;0,2969514;0,2939163;0,2913059;0,2891024;0,2873357;0,2861097;0,2853434;0,2848445;0,2843502;0,2839075;0,2837476;0,2840084;0,2845195;0,2849044;0,2849289;0,2846068;0,2843767;0,2847406;0,2860745;0,2889327;0,2945824;0,3029077;0,3123883;0,3211482;0,3253869;0,3223885;0,3127197;0,3037789;0,2987967;0,2967911;0,2967649;0,2972389;0,2978553;0,2985823;0,2997612;0,3019885;0,305095;0,3089512;0,3128889;0,3168747;0,3215322;0,3258944;0,3287466;0,3290865;0,3291706;0,3306813;0,3328773;0,3348168;0,3372946;0,3412575;0,3469625;0,3534587;0,3593979;0,3633913;0,3659388;0,3683478;0,3711858;0,3741977;0,3772429;0,3790644
24;14,04208322;4,89;2,42723732;0,50072898;0,303622128;0,12104785;1,1125979;1,1249932;1,1290216;1,1275156;1,1239977;1,120796;1,1195744;1,119207;1,1174229;1,1123223;1,1030878;1,0901067;1,0749516;1,0587094;1,0421686;1,0259116;1,0104961;0,9959579;0,9822906;0,9697613;0,9581281;0,9473304;0,9375929;0,9287093;0,919817;0,910206;0,8998245;0,8888077;0,8775134;0,8664643;0,8559916;0,8457786;0,8354703;0,8252173;0,8153462;0,8058394;0,7966263;0,7877194;0,7790856;0,7706704;0,7624429;0,7543806;0,7464409;0,7384971;0,7305561;0,7227948;0,7151735;0,7075105;0,6999384;0,6927172;0,6857591;0,6789413;0,6722292;0,6656216;0,6591003;0,6526222;0,6461976;0,6398029;0,6334369;0,6271577;0,6209871;0,6148772;0,6088285;0,6028458;0,5969428;0,5911054;0,5852544;0,5793952;0,57358;0,5678334;0,562141;0,5564978;0,550904;0,5453612;0,5398873;0,5344909;0,5291905;0,5239537;0,5186871;0,5135136;0,5086274;0,5036974;0,4996238;0,4953379;0,4906301;0,4860474;0,4814403;0,4769861;0,4727337;0,468551;0,4643739;0,4601975;0,4561355;0,452249;0,4484972;0,4447926;0,441162;0,4376341;0,434236;0,4309156;0,4276551;0,4245062;0,4215219;0,4186361;0,4158422;0,4131688;0,4106269;0,408215;0,4058945;0,4037039;0,4016024;0,3995525;0,3975206;0,3957905;0,3948107;0,3949793;0,3970827;0,4010556;0,4048964;0,4052963;0,4030172;0,4015599;0,400448;0,3992201;0,3976111;0,3955213;0,3929273;0,39028;0,3876456;0,385011;0,382459;0,3800752;0,3777518;0,3756105;0,373745;0,3719532;0,3701234;0,3683382;0,3666505;0,3650586;0,3635335;0,3621971;0,3611065;0,3598787;0,3585365;0,3574512;0,3566376;0,3560583;0,3553456;0,3546862;0,3540242;0,3532373;0,3525238;0,3521951;0,3521783;0,3523287;0,3523099;0,3520478;0,3521195;0,3521891;0,3522072;0,352102;0,3518726;0,3515375;0,3510484;0,3504215;0,3497342;0,3490984;0,3485646;0,3482787;0,3484481;0,3495018;0,3520733;0,3582155;0,3699209;0,3898642;0,4159859;0,4388885;0,4523835;0,4581511;0,4585202;0,4552331;0,4499211;0,4437474;0,4374334;0,4311329;0,4248633;0,4186398;0,412922;0,4080759;0,404135;0,4010271;0,3987255;0,3969285;0,3953768;0,3936633;0,3918662;0,3903454;0,3892342;0,3883971;0,3877221;0,3870285;0,3864021;0,3862999;0,3869062;0,3881132;0,3898591;0,3929059;0,3970382;0,4011929;0,4047311;0,406886;0,4063489;0,4010452;0,3962496;0,3950377;0,3965955;0,400349;0,4041641;0,4076167;0,4096199;0,4102583;0,412143;0,4149578;0,4182735;0,4206599;0,4222172;0,4251064;0,4286113;0,4321548;0,4338597;0,4353593;0,4377586;0,4408993;0,4439894;0,4472094;0,451475;0,4570124;0,4635899;0,4704008;0,4766972;0,4824987;0,4884079;0,4943556;0,4999243;0,5052363;0,5090636
25;8,184671899;4,57;0,49262773;0,15061696;0,195756372;0,14793674;1,0137039;1,0245925;1,0260795;1,0203248;1,0118294;1,0044658;1,0012286;1,0010124;0,9993598;0,9932855;0,981518;0,9646361;0,9453076;0,9252337;0,9050543;0,8850312;0,8659785;0,8480822;0,8314856;0,8168058;0,8039054;0,7926217;0,782891;0,774286;0,7660358;0,7575755;0,7487431;0,7396292;0,7303901;0,7212077;0,7123323;0,7035645;0,6946347;0,6856759;0,6769596;0,6685309;0,6603287;0,652391;0,6447244;0,637287;0,6300857;0,6231164;0,6163418;0,609652;0,603021;0,5966239;0,5903749;0,5840824;0,57789;0,5720858;0,5665594;0,5611631;0,555867;0,5506613;0,5455126;0,5403714;0,5352324;0,5300713;0,5248755;0,5197028;0,514581;0,5094613;0,504333;0,4992134;0,4941351;0,4890882;0,483953;0,4787226;0,4735232;0,4683691;0,4632419;0,4581336;0,4530392;0,4479653;0,4429226;0,4379199;0,4329679;0,4280475;0,4230748;0,4181381;0,4134069;0,408626;0,4049925;0,4009835;0,3962949;0,3917286;0,387215;0,3827828;0,3785332;0,3743869;0,3702409;0,366109;0,3621356;0,3583506;0,3547325;0,3512083;0,3478047;0,3445303;0,3414252;0,3383825;0,3354114;0,3325865;0,3299308;0,3274363;0,3250667;0,3228423;0,3207132;0,3187097;0,3167934;0,3149726;0,3132255;0,3115688;0,3099867;0,3087366;0,3083456;0,3095682;0,3134762;0,320167;0,3259216;0,3242699;0,3183372;0,3150561;0,313334;0,3120133;0,3106464;0,3089703;0,3068774;0,3047153;0,3026049;0,3005354;0,2985733;0,2967804;0,2950523;0,2934622;0,2921049;0,2908037;0,289493;0,2882005;0,2870395;0,2859427;0,284923;0,2840743;0,2834377;0,2826795;0,2818111;0,2811661;0,2807306;0,2804593;0,2800411;0,2796528;0,2792372;0,2787468;0,2783463;0,2782486;0,2783695;0,278623;0,2788185;0,2789849;0,2794506;0,2798066;0,2800855;0,2803016;0,2803609;0,2803214;0,2801798;0,2798925;0,2795644;0,2792752;0,2790763;0,2790549;0,2793795;0,2804287;0,2827283;0,2882169;0,2981205;0,3144662;0,3366524;0,3559387;0,3655745;0,3683217;0,3673598;0,3642604;0,3600369;0,3553707;0,3506739;0,3460297;0,3414111;0,3368728;0,3326499;0,3290078;0,3259799;0,3235079;0,3216784;0,3203571;0,3193785;0,3184331;0,3174783;0,3168088;0,3165368;0,3165213;0,3165171;0,3163115;0,3158706;0,3157721;0,3164278;0,3180433;0,3210374;0,3265645;0,3343156;0,3424616;0,3493503;0,3527697;0,3506433;0,3412825;0,3329578;0,3292692;0,3288091;0,3304582;0,3323867;0,3344257;0,3359727;0,3371048;0,3393992;0,3427788;0,3469056;0,3506646;0,354057;0,3582736;0,3625304;0,3660204;0,3673133;0,3683853;0,3707046;0,3737044;0,376358;0,3792327;0,3834983;0,3893674;0,3961895;0,4029276;0,4079769;0,4118427;0,4158089;0,4201761;0,4245121;0,4288821;0,4316558
26;4,64318841;5,03;1,7324862;0,21307231;0,133411428;0,13425307;0,8766416;0,890398;0,8934448;0,8872023;0,8754597;0,8643953;0,8588395;0,85722;0,8547896;0,8467959;0,8307086;0,8069493;0,7788387;0,749027;0,718596;0,6881724;0,6588303;0,6311256;0,6056187;0,5833268;0,5642969;0,5483308;0,5352994;0,5244861;0,5148211;0,5055444;0,4963823;0,4872614;0,4781403;0,4690864;0,460311;0,4517071;0,443197;0,4348783;0,4268451;0,419058;0,4114834;0,4041884;0,3972311;0,3906486;0,3844925;0,3788174;0,3736808;0,3690386;0,3648926;0,3613581;0,3583679;0,3557387;0,3535164;0,351916;0,3508507;0,3500872;0,3495122;0,3490461;0,3485916;0,3480513;0,3473747;0,3465121;0,345445;0,3441845;0,3427469;0,3411396;0,3393827;0,3375265;0,3356429;0,3337393;0,3316175;0,3292185;0,3268235;0,3244646;0,3220805;0,3196501;0,3171567;0,3145922;0,3119671;0,3092884;0,3065601;0,3037619;0,3008137;0,2977961;0,2948252;0,2917047;0,29021;0,2880509;0,2849204;0,2818043;0,2786875;0,2756421;0,272722;0,269837;0,2669308;0,2640271;0,2612669;0,2586692;0,2562081;0,2538235;0,2515404;0,2493835;0,2473775;0,2454534;0,2435573;0,2417817;0,2401643;0,238698;0,2374043;0,2362443;0,2351428;0,2341197;0,2331403;0,232247;0,2313611;0,2305842;0,2299778;0,2298353;0,2309227;0,2340264;0,2402104;0,2506462;0,2605799;0,2581384;0,2471968;0,2410418;0,2384283;0,2370073;0,2359525;0,2348573;0,2334424;0,2319451;0,2304906;0,2290865;0,2277172;0,2264837;0,22537;0,2243968;0,2235705;0,22281;0,2220613;0,2213151;0,2206452;0,2200166;0,2194732;0,2190923;0,2189208;0,2185673;0,2180477;0,2177174;0,2175677;0,217533;0,2173941;0,2173775;0,2173504;0,2172526;0,2172113;0,2174206;0,2178121;0,2182855;0,2186381;0,2189609;0,2196184;0,2201462;0,2205804;0,2209706;0,2212109;0,2213694;0,2214538;0,221399;0,2213357;0,2213378;0,2214224;0,2216364;0,2220199;0,2229923;0,2251614;0,2304385;0,2393047;0,2530671;0,2717445;0,287244;0,2935497;0,294216;0,2926722;0,2899598;0,286656;0,2831337;0,2796672;0,2763535;0,2731;0,2698746;0,2668429;0,2642066;0,2620218;0,2603063;0,2591299;0,2584257;0,2580228;0,2576666;0,2573674;0,257438;0,2579677;0,2587922;0,2596692;0,2601274;0,2600399;0,2599984;0,2607572;0,2628176;0,2667022;0,2734492;0,2830158;0,2945887;0,3065743;0,314502;0,3140014;0,3012794;0,2884828;0,2815214;0,2786253;0,2783071;0,2787431;0,2791831;0,2800685;0,2818824;0,2847781;0,2887526;0,2936111;0,2985155;0,3035117;0,3094559;0,3152376;0,3191235;0,3194298;0,319103;0,3207817;0,3233462;0,3250574;0,3271292;0,3313323;0,3374663;0,3445229;0,3511096;0,3553249;0,3576627;0,3597152;0,3621491;0,3650149;0,3680655;0,3699557
27;9,803635779;5,43;2,29395226;0,26376071;0,25967682;9,58E-02;1,0174149;1,0313721;1,0371131;1,0364047;1,0330096;1,0306659;1,0298799;1,0296665;1,0277799;1,0223755;1,0124375;0,9984403;0,9820872;0,9645648;0,9467517;0,9289814;0,9121386;0,8963622;0,8815191;0,8678939;0,8551368;0,8432612;0,8325337;0,8226473;0,8125103;0,8012913;0,7890182;0,7759641;0,7624228;0,7487626;0,735282;0,7219548;0,7088692;0,696228;0,6841113;0,6724334;0,6612086;0,6504607;0,640191;0,6303867;0,6209944;0,6119553;0,6032529;0,5948688;0,5866622;0,5786723;0,5709084;0,5632514;0,5559502;0,5490173;0,5424949;0,5362408;0,5302129;0,5243993;0,5187705;0,5132735;0,5079029;0,5026418;0,4974705;0,492422;0,4875202;0,4827491;0,4780717;0,4734843;0,4690182;0,464622;0,4601926;0,4557314;0,4513426;0,4470423;0,4428077;0,4386206;0,4344758;0,4303691;0,4263247;0,422348;0,4184386;0,4145644;0,4106648;0,4068408;0,4032037;0,3994831;0,3970709;0,3943038;0,3907867;0,387442;0,3843215;0,3812267;0,3783116;0,3754738;0,3725786;0,3696762;0,3668835;0,3642339;0,3616869;0,3591867;0,3567121;0,3543415;0,3521044;0,3498925;0,3477366;0,3457183;0,343846;0,3420621;0,3403942;0,3388697;0,3374476;0,3361465;0,3349309;0,3338549;0,3328723;0,3319696;0,3311524;0,3308256;0,3315193;0,3339366;0,3394001;0,3463613;0,3525761;0,3536181;0,3506318;0,3493168;0,3487673;0,3481357;0,3471679;0,3456562;0,3435249;0,341235;0,338941;0,3366687;0,3345063;0,3325622;0,3307209;0,3290975;0,3277505;0,326483;0,3251838;0,3239046;0,3227422;0,3216333;0,3205928;0,3197336;0,3190959;0,3183334;0,3174686;0,316877;0,3165235;0,3163784;0,3161485;0,3160899;0,3160802;0,3159863;0,3159465;0,3162892;0,316948;0,3177589;0,3182959;0,318296;0,3186991;0,3192174;0,3196565;0,319882;0,3200062;0,3200531;0,3199628;0,3196759;0,3193043;0,3190049;0,3188137;0,3188126;0,3192827;0,3208397;0,3240162;0,3311557;0,3442389;0,3659668;0,3938972;0,4178329;0,4312794;0,4366269;0,436707;0,4333954;0,4281119;0,4220225;0,4157517;0,4094921;0,4032173;0,3970471;0,3914086;0,3866216;0,38275;0,3797506;0,3775747;0,3759716;0,3746139;0,3731114;0,3715349;0,3702063;0,3692691;0,3686692;0,3681634;0,3675761;0,3670006;0,3668979;0,3676098;0,3692623;0,3721892;0,3774921;0,3830654;0,388007;0,3923477;0,3946281;0,3937589;0,3865146;0,3799243;0,3778811;0,3790707;0,3826531;0,3863409;0,3898319;0,3921734;0,3937364;0,3965566;0,4004734;0,4049263;0,4078393;0,4091243;0,4121526;0,4162614;0,420297;0,4215998;0,422724;0,4252948;0,428787;0,4318616;0,4350573;0,4393788;0,4451631;0,4521196;0,4590671;0,4652995;0,4707264;0,4762704;0,482162;0,4877403;0,4928972;0,4966194
28;3,428965499;4,33;1,06869586;0,21379643;0,199413792;0,12994702;0,9614449;0,9786054;0,9853259;0,9833636;0,9766126;0,9694296;0,9661012;0,9658723;0,9648556;0,9598144;0,9480116;0,9294431;0,9069005;0,882494;0,8570264;0,831161;0,8061461;0,782728;0,7613404;0,7428085;0,7267759;0,7126161;0,6999493;0,6883831;0,6775526;0,6670442;0,6566195;0,6459422;0,6349621;0,6240047;0,6132607;0,6025087;0,5917252;0,5810026;0,5704138;0,5599397;0,5496156;0,5395453;0,5297997;0,5204026;0,5113828;0,5027891;0,4946337;0,4868334;0,479337;0,4723408;0,4657489;0,4593472;0,4532632;0,4477466;0,4427156;0,4379944;0,4335187;0,4292598;0,4251633;0,4211436;0,417166;0,413196;0,4092224;0,4052905;0,4014165;0,3975452;0,3936447;0,3898253;0,3862813;0,3823257;0,3781178;0,3739556;0,3698373;0,3657644;0,361696;0,3576177;0,3535175;0,3493963;0,3452659;0,3411295;0,3370045;0,3328737;0,3286733;0,3244815;0,3204814;0,3163967;0,3137337;0,3105809;0,3064543;0,3025466;0,2988253;0,2951407;0,2916414;0,2882308;0,2848539;0,2815339;0,278377;0,2754178;0,2726359;0,2699857;0,2674901;0,2653339;0,2631248;0,2607801;0,258588;0,2565934;0,2548055;0,2531953;0,2517678;0,250488;0,249303;0,2482485;0,2473465;0,2466026;0,2455621;0,2445314;0,2441327;0,2440351;0,2451811;0,2529156;0,2825198;0,2832215;0,2728715;0,2684214;0,2582991;0,2530377;0,2505605;0,2491384;0,248173;0,2469669;0,2452989;0,2434997;0,2417581;0,240123;0,2385887;0,237235;0,236032;0,2349754;0,2340749;0,2332209;0,2323412;0,2314496;0,2306466;0,2299158;0,2292452;0,2287508;0,228461;0,2280296;0,227453;0,2270762;0,2268413;0,2267171;0,2264432;0,2262869;0,2261305;0,2259254;0,2257859;0,2258569;0,2260889;0,2264541;0,2267676;0,227167;0,2278553;0,228353;0,2287171;0,2290749;0,2293353;0,2295614;0,2297311;0,2296956;0,2295258;0,2294819;0,2295007;0,2296489;0,2300599;0,2312564;0,2337271;0,2395176;0,2496804;0,2664477;0,2889191;0,3051757;0,3099258;0,3092693;0,3069078;0,3038134;0,300351;0,2966693;0,2930278;0,2895615;0,2862224;0,2829763;0,27986;0,2770557;0,2745754;0,2724401;0,2708453;0,2700371;0,2704782;0,2715598;0,2717979;0,2722843;0,2720635;0,2717561;0,2721958;0,273109;0,2740336;0,2758866;0,2785936;0,2851673;0,3058628;0,3517587;0,3554074;0,3294278;0,3200677;0,3160563;0,3154017;0,3051794;0,2936653;0,2872795;0,2860838;0,2876701;0,2900717;0,292447;0,2959471;0,30196;0,3086672;0,3149191;0,3226709;0,332288;0,3355272;0,3317559;0,3335873;0,3384086;0,3385409;0,3373159;0,3393123;0,3466396;0,351465;0,3528482;0,3560268;0,3614732;0,3702113;0,3771397;0,3799112;0,3831479;0,3864845;0,389616;0,3960299;0,4054439;0,4111979
29;8,285857141;4,98;0,69046931;0,22230484;0,202227192;0,15578332;1,0537958;1,0641514;1,0653278;1,0592436;1,050436;1,0432254;1,0408837;1,0417027;1,0411211;1,0356019;1,0239844;1,0071059;0,9875659;0,9674707;0,9473552;0,9272114;0,9074826;0,8880627;0,8691136;0,8514352;0,8354853;0,8216943;0,810412;0,8011239;0,792609;0,7839989;0,7751328;0,766075;0,7569893;0,7480429;0,7394364;0,7310117;0,7227048;0,7146198;0,7068068;0,6992407;0,6919126;0,6848609;0,6781309;0,6717394;0,6656781;0,6599098;0,6543733;0,6490359;0,6439176;0,6390491;0,6343027;0,6294774;0,624861;0,6205686;0,6165009;0,612559;0,6086898;0,60488;0,6011013;0,5972829;0,5934204;0,5894857;0,5854768;0,581443;0,5773937;0,5732911;0,5691426;0,5649737;0,560806;0,5566115;0,5522972;0,5478339;0,543367;0,538937;0,5345094;0,5300661;0,5256184;0,5211602;0,5167069;0,5122653;0,5078461;0,503428;0,4989372;0,4944819;0,490207;0,4858404;0,482734;0,4791894;0,4748486;0,4706805;0,466636;0,4625709;0,4586668;0,4548632;0,4509962;0,4471245;0,4433787;0,4398029;0,4363846;0,4330498;0,4298298;0,4267614;0,4238274;0,4209207;0,4180776;0,4153972;0,4128873;0,4104943;0,4082717;0,406222;0,4042869;0,402418;0,4006228;0,3989295;0,397331;0,3959182;0,3947193;0,3939812;0,3947312;0,3979528;0,4030321;0,4096917;0,4165789;0,4169406;0,4102245;0,4072027;0,406059;0,4050627;0,403251;0,4004566;0,3972523;0,3944658;0,3919589;0,3896269;0,3875752;0,3857366;0,3836964;0,3818957;0,3805526;0,379156;0,377385;0,3756133;0,3741085;0,3727324;0,3714316;0,3703238;0,3694686;0,3685322;0,3675248;0,3667734;0,3662582;0,3659267;0,3654482;0,3650587;0,3646695;0,3641681;0,3637353;0,3636662;0,3638955;0,3642983;0,3646149;0,3648317;0,3653781;0,3658984;0,3663403;0,3667255;0,3670178;0,3671782;0,3671358;0,3669135;0,3666478;0,3664147;0,3662468;0,3662197;0,3666136;0,3680534;0,3711868;0,3784069;0,3909887;0,4113305;0,4387116;0,4631459;0,4759998;0,4798636;0,4789283;0,475271;0,4701257;0,4643939;0,4585457;0,4526959;0,4468394;0,4411108;0,4357966;0,4312204;0,4274578;0,4244276;0,4221905;0,4205315;0,4192432;0,41799;0,416742;0,4158475;0,4153602;0,4151727;0,4152216;0,4152339;0,4150503;0,4156381;0,4175876;0,4213395;0,4271881;0,4354061;0,4450756;0,4541998;0,4606879;0,4653854;0,4683474;0,4564;0,4440755;0,4407336;0,4430665;0,4496996;0,4557409;0,4615259;0,4636385;0,4613298;0,4621002;0,465236;0,4699298;0,4740041;0,4768706;0,4804667;0,4855023;0,4912734;0,4942968;0,496111;0,4994734;0,503598;0,5062966;0,5087051;0,5126816;0,5183836;0,5257764;0,5335618;0,5399705;0,5449316;0,5500948;0,5559624;0,562142;0,5685917;0,5730174
30;4,719077342;4,96;3,65337204;0,33653477;0,166215672;0,10449348;0,9683964;0,9841909;0,9908475;0,9902411;0,9865521;0,9822187;0,9805458;0,9806161;0,9797978;0,97549;0,9655896;0,9499928;0,9309019;0,9101091;0,8881274;0,865609;0,8435149;0,8221641;0,801938;0,7837529;0,7675081;0,7527532;0,739491;0,7275356;0,7163699;0,7055519;0,6947024;0,6830823;0,6708199;0,6589553;0,64778;0,6368698;0,6259525;0,6151761;0,6047192;0,5945458;0,584671;0,5751516;0,5660076;0,5572307;0,5488178;0,5407678;0,5331001;0,5257666;0,518713;0,5120072;0,5056337;0,4994442;0,4936043;0,4882371;0,4833386;0,4787401;0,4743842;0,4702346;0,4662344;0,4623031;0,4584135;0,4545204;0,4506061;0,4466938;0,442811;0,4389246;0,4350086;0,4311458;0,4275105;0,4235049;0,4192283;0,4149854;0,4107807;0,4066039;0,4024257;0,3982327;0,3940199;0,3897816;0,3855351;0,3812862;0,3770473;0,3727968;0,3684581;0,364136;0,3599803;0,3557481;0,3528241;0,3494245;0,3452263;0,3411788;0,3372393;0,3333619;0,329664;0,3260291;0,3223727;0,3187297;0,3152443;0,3119424;0,3087994;0,3057254;0,3027845;0,3001337;0,2974306;0,294628;0,2919971;0,2895476;0,2872996;0,2851921;0,2832498;0,2814513;0,279784;0,2783053;0,276994;0,2758485;0,2744253;0,2730004;0,2720755;0,2715572;0,2718256;0,2786884;0,3074485;0,3102653;0,3006735;0,2949964;0,2874226;0,283294;0,2808991;0,2793046;0,2780222;0,2763728;0,274099;0,2716747;0,2692991;0,2670132;0,2648283;0,2628618;0,2610746;0,2594605;0,2580628;0,2567441;0,2554097;0,254076;0,2528348;0,2516681;0,2505903;0,2496959;0,2490231;0,2482225;0,2472909;0,2465817;0,246093;0,2457779;0,2453546;0,2450281;0,2447134;0,2443491;0,244077;0,244088;0,2443533;0,2447744;0,245064;0,2452364;0,245759;0,2462237;0,2465801;0,2468585;0,2469991;0,2470687;0,2470681;0,24688;0,2465619;0,2463619;0,2462703;0,2463498;0,2468415;0,2484059;0,2518169;0,2596756;0,2732656;0,2953927;0,324077;0,344675;0,3509996;0,3505411;0,3477725;0,3438606;0,3392614;0,3342929;0,3293161;0,3244299;0,3196085;0,3148236;0,3103118;0,3063488;0,3029825;0,3001867;0,2981287;0,2968881;0,2967825;0,2972254;0,2968897;0,2968618;0,2962502;0,2956012;0,2955584;0,2958824;0,2966247;0,298228;0,3005346;0,3067439;0,3266859;0,3702674;0,3740921;0,3501886;0,3432984;0,339385;0,3335856;0,3241058;0,3155576;0,3107466;0,3104253;0,3124119;0,3151264;0,3181441;0,3220684;0,3278972;0,3342798;0,3405822;0,3487029;0,3584454;0,3618708;0,3590666;0,3612807;0,3660262;0,366608;0,3663352;0,3684795;0,3756864;0,3815455;0,3846109;0,3889253;0,3951919;0,4045543;0,4120156;0,415616;0,4195988;0,4239896;0,4281134;0,4349758;0,4440818;0,4501848
31;4,238447439;5,28;4,86347742;0,13124675;0,119794572;8,83E-02;0,9514115;0,9578298;0,9569193;0,9497938;0,9400446;0,930176;0,9236196;0,9195163;0,9150796;0,908194;0,8973406;0,8824437;0,8653089;0,8472252;0,8286949;0,8103897;0,7929444;0,776552;0,7613593;0,7477583;0,7355737;0,7246108;0,7148973;0,7061765;0,6979576;0,6898158;0,6816155;0,6733636;0,6651592;0,6571653;0,6496;0,6422513;0,6348059;0,6274216;0,6203726;0,6136861;0,6073089;0,6012296;0,5954676;0,5899835;0,5847346;0,5797413;0,5749779;0,5703483;0,5658479;0,5616227;0,5575871;0,5535544;0,549667;0,5461922;0,5430295;0,540033;0,537174;0,5344277;0,5317499;0,529087;0,5264268;0,5237412;0,5210282;0,518325;0,5156458;0,5129666;0,5102762;0,5076103;0,505017;0,5024204;0,4997447;0,4970236;0,4943476;0,4917395;0,4891705;0,4866309;0,484114;0,4816114;0,4791351;0,4766934;0,4742971;0,4719209;0,4694893;0,4670684;0,4648089;0,4624579;0,4607798;0,458917;0,4566281;0,4544293;0,4522673;0,4501159;0,4480228;0,4460014;0,4438994;0,4418063;0,4397995;0,4379134;0,436134;0,4343476;0,4326344;0,4309819;0,4293869;0,42778;0,4261929;0,4246907;0,4232787;0,4219266;0,4206432;0,4194198;0,4182175;0,4171101;0,4159977;0,4149512;0,4138545;0,412738;0,4115973;0,4106274;0,4100373;0,4104971;0,4146931;0,4169609;0,4178075;0,4160284;0,4115109;0,4087798;0,4073223;0,4062983;0,4053378;0,4042657;0,4030393;0,4018019;0,4005841;0,3993987;0,3982309;0,3971402;0,3960882;0,3950685;0,3941568;0,3932564;0,392352;0,391443;0,3905723;0,3897128;0,3888781;0,3881715;0,3876169;0,3868479;0,385904;0,385105;0,3843907;0,3837283;0,3829115;0,3822079;0,3815037;0,3806565;0,3798482;0,3792789;0,3788166;0,3784296;0,3780753;0,3778365;0,3778628;0,3776861;0,3774394;0,3771966;0,3768419;0,3764348;0,3759997;0,3754886;0,3749403;0,3744302;0,3739653;0,3735529;0,3733152;0,3733442;0,3737423;0,3755195;0,3793158;0,3861107;0,3958131;0,4035983;0,4062311;0,4059547;0,4045695;0,402593;0,4002774;0,397831;0,3954346;0,3931427;0,3908548;0,3886034;0,3864304;0,384551;0,382885;0,3814352;0,3803434;0,379575;0,379057;0,3785387;0,3778805;0,3773499;0,3769208;0,3766569;0,376482;0,3761741;0,3756482;0,3752529;0,3753128;0,3763575;0,3798039;0,3881824;0,3914265;0,3909649;0,3935344;0,3953637;0,3944007;0,3886223;0,3827214;0,3796376;0,378645;0,3789709;0,3795722;0,3799683;0,3801503;0,3808143;0,3822745;0,3841019;0,3865906;0,3893686;0,3912114;0,392604;0,3947456;0,3967724;0,3968822;0,3963253;0,3968287;0,3984772;0,39976;0,400665;0,4027815;0,4060361;0,4102727;0,4139799;0,4162261;0,417881;0,4194241;0,4211132;0,4234844;0,4262688;0,4278555
32;5,07322569;4,64;3,59924557;0,31028542;0,223440228;8,87E-02;1,0067496;1,020281;1,0266941;1,0266237;1,0245324;1,022262;1,0212257;1,0207696;1,0194819;1,0156498;1,008098;0,9968131;0,9828517;0,9672265;0,9505188;0,9332875;0,916262;0,8996477;0,8834823;0,8684354;0,8543901;0,841061;0,8284564;0,8165578;0,8050587;0,7936472;0,7821918;0,7705945;0,7588826;0,7473523;0,7362334;0,7252138;0,7140025;0,7027735;0,6918013;0,6811171;0,6707014;0,6606073;0,6508415;0,6413952;0,6322399;0,6234017;0,6148509;0,6064518;0,5982709;0,5904509;0,5829127;0,5754616;0,5682407;0,5615663;0,5552973;0,5492854;0,5434909;0,5379043;0,5324919;0,5271975;0,5220019;0,5168738;0,5118067;0,5068469;0,5020049;0,4972311;0,4925098;0,48786;0,4833269;0,4788498;0,4742646;0,4696289;0,4650618;0,4605671;0,4561225;0,4517158;0,4473412;0,4429978;0,4387056;0,4344635;0,4302906;0,4261658;0,4220143;0,417929;0,4140321;0,4101174;0,407331;0,4041845;0,4003789;0,3967675;0,3933055;0,3898901;0,3866307;0,3834512;0,3802578;0,3771013;0,3740794;0,3712425;0,3685571;0,3659256;0,3634083;0,361008;0,3587296;0,3564581;0,3542112;0,3521162;0,3501418;0,3482657;0,3464929;0,3448331;0,3432443;0,3417598;0,3403362;0,3389995;0,3376378;0,3362626;0,3349102;0,3338513;0,3332873;0,3344547;0,3408583;0,3489579;0,352694;0,3487154;0,3428444;0,3394349;0,3374029;0,3359946;0,3348396;0,3335372;0,331772;0,3298547;0,3279699;0,3261504;0,3244507;0,3229406;0,3215419;0,3202825;0,319157;0,3180591;0,3169047;0,3156536;0,3144353;0,3132785;0,3122093;0,3113142;0,3106457;0,3098089;0,3088225;0,3080101;0,3073383;0,3067693;0,3060448;0,3054137;0,304776;0,3040483;0,3034059;0,3030287;0,3028268;0,3027221;0,3026423;0,3026791;0,303008;0,3031889;0,3032787;0,3033646;0,3032904;0,3031048;0,3028817;0,3025586;0,3022103;0,3019478;0,3017543;0,3016928;0,3020058;0,3030368;0,3052427;0,3105239;0,3202531;0,3370748;0,3602462;0,3774635;0,3825949;0,3819407;0,379465;0,376246;0,3726812;0,3690164;0,3654712;0,3622294;0,3592968;0,3565686;0,353877;0,3510895;0,3483257;0,3458017;0,3438833;0,3426156;0,3419475;0,3416093;0,3415363;0,3419691;0,3430074;0,3444311;0,3454125;0,3454441;0,3446452;0,3436506;0,3428998;0,3428881;0,3451923;0,3528;0,3618411;0,3695333;0,3744762;0,3722898;0,3639653;0,3545119;0,3478619;0,3447635;0,3439369;0,3442077;0,3447146;0,3454158;0,3462955;0,347708;0,3499591;0,3530872;0,3572075;0,3618399;0,3664732;0,3712028;0,3750758;0,3773625;0,3776836;0,3781092;0,3796001;0,3820244;0,3848424;0,3884663;0,3935323;0,4000817;0,4077933;0,4149192;0,4198537;0,4233994;0,4267848;0,4307056;0,4350502;0,4394625;0,4426756
33;7,678745686;4,63;0,64567499;0,13233293;0,101169864;8,47E-02;1,1072098;1,1203851;1,1241999;1,1209552;1,1151019;1,1101912;1,1086223;1,109584;1,1089443;1,1032865;1,0914824;1,0748377;1,0554993;1,0352361;1,0148753;0,9946684;0,9751643;0,9565122;0,9389676;0,9231252;0,9090141;0,8967231;0,8863558;0,8773344;0,8684906;0,8589635;0,8486991;0,8379475;0,8270052;0,8161934;0,8057535;0,7954965;0,7853301;0,775385;0,7657767;0,7564793;0,7474594;0,7387695;0,7304125;0,7223588;0,7145835;0,7070726;0,6998694;0,6928802;0,685957;0,6791996;0,6726054;0,6660736;0,6597609;0,6537319;0,6480374;0,6425208;0,6371317;0,6318518;0,6266496;0,621465;0,6163015;0,6111211;0,6059208;0,6007288;0,5955885;0,5904902;0,5853909;0,5802951;0,5752215;0,5701552;0,5650083;0,5597767;0,5545617;0,5493888;0,5442318;0,5390707;0,5339223;0,5287901;0,5236908;0,5186259;0,5136008;0,5085819;0,5034814;0,4984392;0,4935598;0,4886288;0,4846739;0,4804502;0,4756424;0,4709817;0,4664296;0,4619656;0,4576935;0,4534886;0,4492708;0,4450918;0,4410502;0,4371884;0,4335275;0,4299293;0,4264494;0,4231395;0,420008;0,4169452;0,4139841;0,4112212;0,4086501;0,4061788;0,4038589;0,4017344;0,3997531;0,3978829;0,3961051;0,3944641;0,3929492;0,3915763;0,3903577;0,3896411;0,3903045;0,3932257;0,3985397;0,4055836;0,4118062;0,4129815;0,4095232;0,4085472;0,4085064;0,4081644;0,4062901;0,4027933;0,3988457;0,3956903;0,3929828;0,3906322;0,3887388;0,3870898;0,3850462;0,3832797;0,3821294;0,3808293;0,3788638;0,376882;0,3752639;0,3738269;0,3724808;0,3713175;0,3704503;0,3695056;0,36849;0,36777;0,3673112;0,3670684;0,3667182;0,3664746;0,3662751;0,365968;0,365714;0,365826;0,3662535;0,3668346;0,36725;0,367462;0,3680347;0,3686047;0,369112;0,3695621;0,3699273;0,3701308;0,370123;0,3699283;0,3697216;0,3695442;0,3694192;0,369498;0,3700132;0,3715608;0,3749318;0,3825809;0,3961766;0,4184626;0,4477563;0,4728223;0,4858361;0,4901663;0,4896034;0,4859552;0,4805652;0,4744436;0,4681219;0,4618084;0,4554973;0,4493082;0,4435986;0,4387579;0,4348161;0,4317;0,4293745;0,4276574;0,4262486;0,4248029;0,423329;0,4221696;0,4213632;0,4208511;0,4204623;0,4200594;0,4198649;0,420412;0,4219122;0,4247158;0,4293861;0,43645;0,4443268;0,4510176;0,4554656;0,4586616;0,4598237;0,4525815;0,4464954;0,4467391;0,4521501;0,4624253;0,470974;0,4788422;0,4807882;0,4756823;0,4743257;0,4758226;0,4792913;0,4822184;0,4834597;0,4855027;0,4893916;0,4947436;0,4978993;0,4997778;0,5024064;0,5057589;0,5085418;0,511135;0,514642;0,5194888;0,525942;0,5325969;0,5382569;0,5428989;0,5484211;0,5546855;0,5610376;0,5673143;0,5718038
34;11,20889643;4,8;1,50763628;0,27208809;0,165821796;9,87E-02;1,1518042;1,1663693;1,172947;1,1743612;1,1739019;1,1739417;1,1753035;1,1769677;1,1767522;1,1728781;1,1646814;1,1528428;1,1390384;1,1242605;1,1089923;1,0936166;1,0787083;1,0642886;1,050393;1,0373966;1,0251485;1,0136667;1,0031576;0,9934147;0,983684;0,9732508;0,9620811;0,9503523;0,9383031;0,9262216;0,9143488;0,9025616;0,8908502;0,8793838;0,8682213;0,8573055;0,8466154;0,8361869;0,8260146;0,8160695;0,8063041;0,7967094;0,7872806;0,7779261;0,768565;0,7593748;0,7503458;0,7413667;0,7325982;0,724157;0,716046;0,7081347;0,7003832;0,6927928;0,685338;0,67798;0,6707124;0,6635154;0,6563798;0,6493617;0,6425015;0,635753;0,629087;0,622503;0,6160228;0,6096215;0,6032278;0,5968439;0,5905284;0,5843021;0,5781501;0,5720656;0,5660499;0,5601077;0,5542501;0,5484808;0,5428184;0,5372308;0,531632;0,5261378;0,5209355;0,5157003;0,5113376;0,5068035;0,5016882;0,496803;0,4920668;0,4874173;0,4829595;0,4785931;0,4742168;0,4698847;0,4656799;0,461626;0,4577415;0,4539268;0,4502164;0,4466273;0,443176;0,4397835;0,4364936;0,4333647;0,4303972;0,4275573;0,4248345;0,4222865;0,4198479;0,4175282;0,4153029;0,4132596;0,4113069;0,4094779;0,407727;0,4063214;0,405926;0,4072514;0,4104393;0,4150898;0,4199231;0,4212155;0,4187748;0,4176862;0,41705;0,4161168;0,4143913;0,4116961;0,4084171;0,4053562;0,4024837;0,3997065;0,3971659;0,3948524;0,3924544;0,390278;0,388507;0,386733;0,3847148;0,3827433;0,3809723;0,379311;0,3777172;0,3763049;0,3751633;0,3739409;0,3726235;0,3715939;0,3708332;0,3703119;0,3696578;0,3690766;0,3685102;0,3678508;0,3672786;0,3671159;0,367276;0,3675802;0,3676945;0,3674786;0,3676638;0,3678872;0,368034;0,3680442;0,3679616;0,3677566;0,367367;0,3667874;0,3661587;0,365578;0,3650809;0,364841;0,3651056;0,3664201;0,3694881;0,3767346;0,3905037;0,4140224;0,4438188;0,4685102;0,4822016;0,4875075;0,4872566;0,4833295;0,4772826;0,4703501;0,4631902;0,4561124;0,4490642;0,4421653;0,4358548;0,4305141;0,4262244;0,4228512;0,420358;0,4184785;0,4168957;0,4151367;0,4132927;0,4117465;0,410569;0,4096933;0,4089575;0,4082542;0,4076186;0,4075835;0,4084673;0,4103508;0,4133752;0,417984;0,4231349;0,4274597;0,4303013;0,4328022;0,4342767;0,4282534;0,4226715;0,4222728;0,4256837;0,4324183;0,4384485;0,4441683;0,4464327;0,4448748;0,445602;0,4481249;0,4516143;0,4538593;0,4544509;0,4564555;0,4599507;0,4644201;0,4668211;0,468561;0,4713562;0,4749109;0,4779249;0,4807948;0,4846511;0,4899434;0,4965556;0,5037486;0,5104089;0,5164606;0,5228197;0,5295858;0,5363355;0,5425261;0,5470166
35;11,36067429;4,4;0,87799063;0,19225386;0,183546216;0,10822539;1,1007214;1,1134106;1,1173264;1,1152363;1,1106222;1,106712;1,1054795;1,105652;1,104304;1,0990106;1,088666;1,0738188;1,0563284;1,0376308;1,0185553;0,9996719;0,981692;0,9647687;0,9489689;0,9347091;0,9218023;0,9102433;0,9001302;0,8910668;0,882072;0,8724313;0,8620551;0,8510604;0,8397119;0,8283908;0,8173512;0,8065143;0,7958727;0,7855525;0,7756062;0,7659831;0,7566801;0,7477231;0,7391057;0,7307865;0,7227405;0,7149243;0,7073546;0,6999568;0,6925982;0,6853623;0,678284;0,6712875;0,6644993;0,6579424;0,6517067;0,6456515;0,6397165;0,6339051;0,6281871;0,6225122;0,6168749;0,6112541;0,6056432;0,6000848;0,5946195;0,5892272;0,5838639;0,5785285;0,5732483;0,5680082;0,5627184;0,5573769;0,5520713;0,5468234;0,5416142;0,5364305;0,5312744;0,5261493;0,5210707;0,5160415;0,5110774;0,506151;0,5011824;0,4962947;0,491669;0,4869864;0,4832707;0,4793072;0,47471;0,4703062;0,4660111;0,461785;0,4577333;0,4537614;0,4497765;0,4458037;0,4419662;0,4382874;0,4347704;0,4313131;0,4279428;0,424704;0,4215951;0,418525;0,415526;0,412679;0,4099816;0,4074132;0,404958;0,402633;0,4004095;0,3982968;0,396261;0,3943677;0,3925499;0,3908154;0,3891563;0,387853;0,3874907;0,3887104;0,3919429;0,3968757;0,4014013;0,4010982;0,3975024;0,3956168;0,3944536;0,3932704;0,3916439;0,3894043;0,3866888;0,3840874;0,3815885;0,3791717;0,3769223;0,3748656;0,3727789;0,3709018;0,3693256;0,3677766;0,3660858;0,3644239;0,3629063;0,3614703;0,36008;0,3588548;0,3578938;0,3568047;0,3556212;0,3546889;0,3540038;0,353521;0,3528898;0,3523133;0,3517359;0,3510597;0,3504471;0,3501891;0,3502117;0,3503941;0,3504369;0,3502874;0,3504674;0,3506373;0,3507336;0,3507478;0,35064;0,3504306;0,3500903;0,3495808;0,3490079;0,3484885;0,3480849;0,3478566;0,3479821;0,3489801;0,3514366;0,3573931;0,3686357;0,38812;0,4142836;0,4368196;0,4486501;0,4525002;0,4517015;0,4480366;0,4427995;0,4369705;0,431023;0,4251307;0,4192598;0,4134497;0,4081058;0,40362;0,3999865;0,3971284;0,395013;0,393451;0,3921906;0,3908309;0,3894706;0,3883632;0,3875992;0,3871297;0,3867154;0,3862007;0,3857037;0,3857542;0,3866287;0,3884597;0,3915214;0,396532;0,4026268;0,4081322;0,4121254;0,4142886;0,413506;0,40614;0,3998781;0,3986443;0,4008028;0,4055635;0,4099819;0,4141417;0,4161148;0,4156515;0,4169599;0,4196537;0,4231903;0,4259469;0,4275882;0,4302532;0,4337811;0,4376468;0,4395784;0,4410769;0,4436265;0,446835;0,449607;0,4524841;0,4564072;0,4618059;0,4684903;0,4755162;0,481601;0,4867942;0,4923592;0,4984456;0,5043094;0,5098068;0,5136735
36;17,78593719;5,01;1,65277866;0,15659095;0,200426616;0,13568842;1,0860987;1,0985074;1,1021504;1,0998496;1,0949494;1,09091;1,0896633;1,0897074;1,0883282;1,0829358;1,0726349;1,0578191;1,0403295;1,0216496;1,0025969;0,9837821;0,9658456;0,9489807;0,9332535;0,9190288;0,90617;0,8946395;0,8845799;0,8755603;0,8666149;0,8570276;0,8467017;0,8357737;0,8244884;0,8132272;0,8022469;0,791487;0,7809224;0,7706916;0,7608395;0,7513183;0,742111;0,7332386;0,7247011;0,7164577;0,7084777;0,7007493;0,6932582;0,6859321;0,6786364;0,6714854;0,6645021;0,6575761;0,6508375;0,6443583;0,6382022;0,6322221;0,6263676;0,620629;0,614983;0,6093807;0,6038195;0,5982782;0,5927475;0,5872639;0,5818748;0,5765548;0,5712705;0,5660208;0,5608274;0,5556673;0,5504566;0,5451928;0,5399677;0,534796;0,5296661;0,524564;0,5194901;0,5144457;0,5094487;0,5045061;0,4996321;0,4947963;0,4899132;0,4851025;0,4805242;0,475893;0,4723503;0,4685106;0,4640196;0,4596983;0,4554718;0,4513158;0,447341;0,4434524;0,43956;0,4356434;0,4318817;0,4282993;0,4248361;0,4214404;0,4181472;0,4149668;0,4119238;0,4089271;0,4060106;0,403224;0,400601;0,3980915;0,3956836;0,3934102;0,391254;0,3891999;0,3872144;0,3853651;0,383593;0,3819095;0,3803071;0,3790524;0,3787197;0,379934;0,3831175;0,3879957;0,3924744;0,3922022;0,3886682;0,3868232;0,3856878;0,3845139;0,3829215;0,3807283;0,3780802;0,3755356;0,3731138;0,3707696;0,3685678;0,3665548;0,3645323;0,3626946;0,3611515;0,3596391;0,3579965;0,3563711;0,3548989;0,353497;0,3521625;0,3509994;0,350073;0,3490294;0,3478789;0,3469793;0,3463311;0,3458674;0,3452725;0,3447378;0,3441796;0,3435285;0,3429532;0,3427146;0,3427841;0,3429772;0,3430351;0,3429083;0,343109;0,3432921;0,3434201;0,3434614;0,3433766;0,3432024;0,3428787;0,3423955;0,3418636;0,3413811;0,3409777;0,3407683;0,3409437;0,3419593;0,3444063;0,3502952;0,3614322;0,3806846;0,4064854;0,4286831;0,4402945;0,4440492;0,4432196;0,4395989;0,4344271;0,4286641;0,4228345;0,4170408;0,4112829;0,4056126;0,4003995;0,395991;0,3924439;0,3896643;0,3876299;0,3861295;0,3849162;0,3835979;0,3822528;0,381173;0,3804868;0,3800527;0,3796671;0,3791972;0,3787485;0,378845;0,3797503;0,3815863;0,384618;0,3895615;0,3956449;0,4011346;0,4051072;0,4073142;0,406572;0,3993493;0,3932424;0,3920359;0,3941827;0,3989659;0,4033741;0,4075283;0,4094416;0,4090035;0,4103281;0,4129799;0,4165456;0,4192741;0,4208834;0,4236333;0,4271092;0,4309282;0,4329169;0,4343962;0,4369924;0,4401672;0,4429767;0,4458016;0,4497876;0,4551481;0,4618087;0,4686888;0,47465;0,4799479;0,4854361;0,4914033;0,4973322;0,5028989;0,5067716
37;9,893488275;5,17;1,64311714;0,16582348;0,16795998;0,14085568;1,1059595;1,1182561;1,1219634;1,1204726;1,1167886;1,1136212;1,1126854;1,1128989;1,1118144;1,1071826;1,0978699;1,0841864;1,0677623;1,0499194;1,0314972;1,0131562;0,995672;0,9792474;0,9639152;0,9499972;0,937297;0,9259313;0,9161363;0,9074774;0,8987552;0,889069;0,878372;0,8669404;0,8550811;0,8431805;0,8316505;0,8203607;0,8091198;0,7981039;0,7875702;0,7775215;0,7679201;0,7587708;0,7500488;0,741702;0,7336874;0,7259902;0,7185735;0,7113035;0,7041667;0,6973304;0,690727;0,6841834;0,6777873;0,6718062;0,6661625;0,6607093;0,6554021;0,650229;0,6451584;0,6401203;0,6351152;0,6301137;0,6251054;0,6201415;0,6152341;0,610341;0,6054527;0,6005896;0,5957854;0,5910124;0,5861321;0,5811542;0,5761949;0,5712646;0,5663473;0,5614334;0,5565189;0,5516076;0,5467184;0,5418579;0,5370402;0,5322481;0,5273915;0,5225683;0,517967;0,5132918;0,5093857;0,5052999;0,5007001;0,4962782;0,491916;0,4876719;0,4836429;0,4796688;0,4756458;0,4716373;0,4677431;0,464022;0,4604598;0,4569404;0,4535147;0,4502141;0,4470673;0,4439892;0,4409667;0,4381153;0,4354479;0,4329135;0,4305199;0,4282887;0,4262011;0,4242376;0,4223903;0,4207194;0,4191378;0,4176582;0,4162937;0,4153841;0,4155586;0,4179761;0,4242345;0,4335453;0,4410539;0,4410208;0,4368425;0,4348688;0,4338969;0,4329275;0,4315052;0,4293734;0,4265209;0,4235862;0,4207563;0,4179946;0,4153737;0,4129584;0,4105861;0,4084572;0,4066898;0,4049865;0,4032054;0,4014677;0,3999042;0,3984406;0,3970596;0,395889;0,3949696;0,3939763;0,3928912;0,3920949;0,3915788;0,3913252;0,3909616;0,3907189;0,3905606;0,3903274;0,3901659;0,3904368;0,3910834;0,3919044;0,392486;0,3925334;0,3930152;0,3936627;0,394206;0,3945312;0,3947076;0,3947752;0,3946534;0,3943296;0,3939415;0,3936244;0,3933907;0,3934505;0,3941253;0,3959991;0,4000141;0,4089382;0,4250024;0,4511743;0,4852245;0,5140415;0,529174;0,5345379;0,5340987;0,5300279;0,5239184;0,5169158;0,5097127;0,502468;0,4952103;0,4880561;0,4814381;0,4757658;0,4711535;0,4675428;0,4648664;0,4628498;0,4611787;0,4593661;0,4575584;0,4561176;0,4551931;0,4545898;0,4540493;0,4533595;0,452646;0,4525857;0,4534873;0,4555614;0,4593344;0,466176;0,4752067;0,4837404;0,489604;0,4911696;0,4877519;0,478411;0,4708745;0,4687597;0,4705792;0,475426;0,4802086;0,4847715;0,4876624;0,4887297;0,4916338;0,4962361;0,5018651;0,5062417;0,5089612;0,5134001;0,5185151;0,5234649;0,5255775;0,5274734;0,5308306;0,5349364;0,538934;0,5432057;0,5489064;0,5561479;0,5648319;0,5734916;0,5807527;0,5866765;0,592881;0,5995178;0,6060376;0,6124411;0,6168867
38;12,27134147;4,69;0,79202506;0,16328906;0,179551188;0,10095295;1,0521648;1,066877;1,0715731;1,0711169;1,0686727;1,0673137;1,0673935;1,0681099;1,0670507;1,0622612;1,0530322;1,0396204;1,0235953;1,0062859;0,988485;0,970812;0,9540097;0,9383039;0,9236354;0,9101577;0,8975117;0,8859103;0,8758439;0,8670459;0,8580106;0,8475401;0,8354282;0,8220595;0,8079574;0,7937474;0,7800177;0,7666749;0,7535244;0,7407454;0,7285993;0,7170576;0,7060617;0,695627;0,6857123;0,6762557;0,6672124;0,6585555;0,6502131;0,642022;0,6340461;0,6264449;0,6190955;0,6117821;0,6046399;0,5980325;0,5917865;0,5857545;0,5799085;0,5742455;0,5687297;0,5633147;0,5579966;0,5527521;0,5475661;0,5424916;0,5375444;0,5326695;0,5278592;0,5231237;0,5184893;0,5139266;0,5093457;0,5047371;0,5001661;0,4956538;0,4911875;0,4867585;0,4823641;0,4780104;0,4737069;0,4694619;0,4652895;0,4611777;0,4570353;0,452946;0,4490859;0,4451835;0,442129;0,4388931;0,4351557;0,431561;0,4280051;0,4245959;0,4213511;0,4181742;0,4149661;0,4117611;0,4086678;0,4057213;0,4029042;0,400126;0,3974061;0,394776;0,3922724;0,389806;0,3873955;0,3851166;0,3829581;0,3808939;0,3789346;0,3770762;0,3753022;0,3736499;0,3720762;0,3706341;0,3692295;0,367884;0,3665286;0,3654029;0,3649496;0,3656607;0,3684027;0,3729545;0,3773706;0,3782914;0,3762623;0,3751146;0,374353;0,3734819;0,37231;0,3706766;0,3685467;0,366335;0,3641347;0,3619569;0,3598588;0,357915;0,3560226;0,3542924;0,3527925;0,3513528;0,3498946;0,3484881;0,3471907;0,345955;0,3447796;0,3437755;0,3429878;0,3420641;0,341016;0,3402092;0,3396119;0,3391863;0,3386334;0,3381813;0,3377616;0,3372287;0,3367607;0,336655;0,3368143;0,3370718;0,3371744;0,3369896;0,3371457;0,3373218;0,3374131;0,3373562;0,3371802;0,3369331;0,3365701;0,3360704;0,3355132;0,3349783;0,3345476;0,3343191;0,3345326;0,3355435;0,3378189;0,3432886;0,3538225;0,3717498;0,3950973;0,415412;0,4272143;0,4320421;0,4320848;0,4289834;0,4241035;0,4184927;0,4127433;0,4070493;0,4013491;0,3957838;0,3906375;0,3862365;0,382614;0,3796817;0,3774657;0,3757235;0,3742132;0,3726291;0,3709839;0,3695574;0,3685173;0,367742;0,3670554;0,3663286;0,3656057;0,3652897;0,3655797;0,3664465;0,3678084;0,3703777;0,3739722;0,3776543;0,3806139;0,3822054;0,3819374;0,3770253;0,3724197;0,3712052;0,372324;0,3752837;0,3783642;0,3813137;0,3832418;0,3842328;0,3862655;0,3890892;0,3923236;0,3943141;0,3951991;0,397651;0,4008858;0,4042534;0,4054863;0,4065725;0,4087941;0,411584;0,4141624;0,4168256;0,4205277;0,4253069;0,4310564;0,4371156;0,4425912;0,4474583;0,4525801;0,4578265;0,4627382;0,4673451;0,470556
39;6,009189184;4,77;0,92695697;0,20854656;0,18202698;9,12E-02;0,9170932;0,9289711;0,9304862;0,9241399;0,913471;0,9043298;0,9002571;0,8996668;0,8978065;0,8913182;0,877977;0,8585658;0,8357672;0,8115731;0,7868612;0,7621946;0,7385406;0,7162104;0,6955672;0,6771786;0,6609735;0,6468775;0,6348957;0,6245503;0,6148591;0,6050439;0,5949406;0,5845851;0,5740076;0,5633245;0,5528454;0,5424893;0,5321261;0,5218785;0,5119812;0,5025163;0,4934888;0,4849589;0,476958;0,4694522;0,4624513;0,4560163;0,4501527;0,4446925;0,4395211;0,4348028;0,430505;0,4264531;0,4226113;0,419266;0,4163933;0,4137886;0,4113883;0,4091502;0,4070143;0,4049053;0,4027912;0,4006316;0,3984093;0,3961326;0,3938375;0,3914983;0,3890816;0,3866041;0,3841256;0,3816535;0,3789955;0,3760989;0,3731938;0,3703026;0,367382;0,3644196;0,3614075;0,3583441;0,355253;0,3521286;0,3489963;0,3458479;0,3425955;0,3393161;0,3361827;0,3329841;0,3309977;0,3285643;0,3253434;0,3222768;0,3192699;0,3163216;0,313555;0,3108594;0,3081482;0,3054572;0,3029003;0,3005064;0,2982395;0,296049;0,2939405;0,29193;0,2900976;0,2883316;0,2865992;0,2849987;0,2835631;0,2822857;0,2811682;0,2801731;0,2792688;0,2784355;0,2776633;0,2770015;0,2763948;0,2758811;0,2754952;0,2754987;0,2766231;0,279648;0,2854972;0,2950621;0,3041763;0,303217;0,2948915;0,2907236;0,289234;0,2884189;0,2877152;0,286804;0,2854769;0,2840051;0,2825949;0,2811723;0,2797759;0,2785292;0,2773769;0,2763723;0,2755356;0,2747769;0,2740441;0,2733545;0,2727535;0,2721843;0,2716448;0,2712797;0,2711387;0,2708416;0,270405;0,2701763;0,2701444;0,270265;0,2702903;0,2704687;0,2707053;0,2708668;0,2711074;0,2716615;0,2724274;0,2732998;0,2739111;0,2741042;0,2747104;0,2753671;0,2758994;0,2762306;0,2764622;0,2766586;0,2767812;0,27675;0,2766607;0,2766329;0,2767258;0,2770056;0,2774797;0,2785861;0,281103;0,2871066;0,2971596;0,3127562;0,3338378;0,3524092;0,3618948;0,3646108;0,3637278;0,3607809;0,3567106;0,3522353;0,3478084;0,3434869;0,3392335;0,3350406;0,331227;0,3280735;0,3255981;0,3238102;0,3227278;0,3221765;0,3218463;0,321338;0,3207449;0,3204881;0,3206528;0,3211556;0,3217074;0,3219175;0,3216285;0,3215096;0,3222667;0,3242221;0,3276311;0,3332279;0,3411312;0,3510455;0,3613583;0,3683816;0,3685719;0,3565937;0,344158;0,3383181;0,3368792;0,3379014;0,3396246;0,3415297;0,3435262;0,3461179;0,3496952;0,3543155;0,3594698;0,3631939;0,3660359;0,3709356;0,3764477;0,3807094;0,3810495;0,3810102;0,3832281;0,3864338;0,3886943;0,3911097;0,3953274;0,4014022;0,4084558;0,4154426;0,4207127;0,4243774;0,4278464;0,4314086;0,4352319;0,4390499;0,4414464
40;4,719077342;4,66;0,61603169;0,0995665;0,161883036;7,58E-02;1,0917648;1,1088831;1,1140833;1,1099116;1,1014855;1,0950441;1,0957482;1,1000872;1,1016239;1,0951662;1,079512;1,0565767;1,0302665;1,0035466;0,9771062;0,950626;0,9243609;0,8986302;0,874116;0,8522587;0,8334022;0,8172707;0,8039968;0,7930332;0,783165;0,7736866;0,7639588;0,7526355;0,7399462;0,7276648;0,7163104;0,7054652;0,6948898;0,6846142;0,6746306;0,6648927;0,6553978;0,646226;0,6374255;0,6290234;0,6210386;0,613592;0,6067845;0,6003408;0,5942077;0,5886331;0,5835242;0,5787027;0,5740256;0,5699336;0,5663124;0,5629302;0,5597284;0,5566668;0,5536836;0,550698;0,5476798;0,5445851;0,5413956;0,5381202;0,5347905;0,5313676;0,5278493;0,5242696;0,520652;0,5169631;0,5131055;0,5089734;0,504807;0,5006452;0,4964406;0,4921713;0,4878452;0,4834697;0,4790556;0,4746031;0,4701293;0,4656241;0,4609676;0,4562486;0,4516588;0,4469554;0,443262;0,4391961;0,4344373;0,4297741;0,4250954;0,4205465;0,4161973;0,4119157;0,4075644;0,4032333;0,3990809;0,3951415;0,391403;0,3877856;0,3843774;0,3811867;0,3782189;0,3752925;0,3724502;0,3698432;0,3675055;0,365378;0,3635232;0,3619138;0,3605105;0,3591464;0,3578829;0,3567922;0,3558385;0,3553189;0,3552926;0,3558966;0,3594536;0,367424;0,3753138;0,3834393;0,3940045;0,3955519;0,3849517;0,380382;0,3788465;0,3777538;0,3760701;0,3734091;0,3701135;0,3671131;0,3645258;0,362053;0,359745;0,3577053;0,3556007;0,3538075;0,3524506;0,3510861;0,3494658;0,3479085;0,3466123;0,3454607;0,3443681;0,3434847;0,3428924;0,3422256;0,3414917;0,3410354;0,3408713;0,3409118;0,340867;0,3409367;0,3410082;0,3409994;0,3410186;0,3413877;0,3421162;0,3430121;0,3437262;0,3443078;0,3452076;0,3460551;0,3468435;0,3476023;0,3482533;0,3487455;0,3489499;0,3488251;0,3486353;0,3484758;0,3483405;0,3484968;0,3490524;0,3507659;0,3550043;0,3648762;0,3808906;0,4052735;0,4384347;0,4667782;0,4793325;0,4812262;0,4784211;0,4733216;0,4670249;0,4602682;0,453462;0,4467222;0,4400036;0,4334264;0,4274257;0,422337;0,4183533;0,4153855;0,4133577;0,4120583;0,4112278;0,4104104;0,4096504;0,4092813;0,4093147;0,4095256;0,4099379;0,4102603;0,4101105;0,4111758;0,4144283;0,4204548;0,4298358;0,4424564;0,4554265;0,4648227;0,4676616;0,470319;0,476512;0,4598196;0,4420831;0,4377325;0,44029;0,4466409;0,4527428;0,4585288;0,4612522;0,4609687;0,4634136;0,4679888;0,4736588;0,4783723;0,481732;0,4853884;0,4903358;0,4967923;0,50087;0,5035378;0,5085857;0,5142079;0,5170568;0,5187966;0,5226572;0,5290416;0,5374842;0,5469929;0,5549218;0,5608181;0,5668573;0,5737525;0,5815055;0,5891545;0,5942249
41;3,985484333;5,64;9,07205749;0,28385504;0,13166712;6,14E-02;1,0165946;1,0337623;1,0394237;1,0364821;1,0283798;1,0196987;1,0155609;1,015179;1,0144457;1,0095797;0,9976616;0,9788436;0,9555369;0,9299271;0,9030544;0,8758422;0,849759;0,8256496;0,8041853;0,7861817;0,7709996;0,7578332;0,7463301;0,7361184;0,7267387;0,7177667;0,7088261;0,6993489;0,6893522;0,6794463;0,6698718;0,660274;0,6503612;0,6402884;0,6303322;0,6205152;0,6108508;0,6014212;0,5923009;0,5835242;0,5751256;0,5671352;0,5595779;0,5523895;0,5454964;0,5390276;0,5329406;0,527041;0,5214463;0,5163602;0,511722;0,5073571;0,5031871;0,4991742;0,4952635;0,4913652;0,4874543;0,4834918;0,4794581;0,4753907;0,4713077;0,4671807;0,4629951;0,4587829;0,4545709;0,450323;0,4459237;0,4412859;0,4366376;0,4320197;0,4273835;0,4227121;0,4180011;0,4132479;0,4084709;0,4036795;0,3988817;0,3940621;0,3891387;0,3842234;0,3794816;0,3746636;0,37115;0,367193;0,362458;0,357867;0,35341;0,34906;0,3449242;0,3408981;0,3368734;0,3329203;0,3291818;0,3256543;0,3223183;0,319105;0,3160666;0,3132145;0,3105262;0,3078604;0,3052113;0,3027356;0,300472;0,2983911;0,2965165;0,2948274;0,2932646;0,2917062;0,2902409;0,2889042;0,2876073;0,2865767;0,2859099;0,285501;0,2873501;0,2917307;0,2980555;0,3057601;0,3140353;0,3141099;0,3012401;0,2945287;0,2916253;0,2897679;0,2882907;0,2866352;0,2843759;0,281902;0,2795162;0,2772066;0,2749637;0,2729107;0,2710317;0,2693374;0,2678179;0,2663877;0,2650284;0,2637035;0,2624782;0,2613005;0,2602082;0,2592846;0,2585901;0,2577488;0,2567666;0,255983;0,2553866;0,2549191;0,2543477;0,2538684;0,2533528;0,2527498;0,2522043;0,2519404;0,2519154;0,2520384;0,2520999;0,252197;0,2525818;0,2528215;0,2529883;0,2531465;0,2531839;0,2531594;0,2529719;0,2525201;0,2520258;0,2516322;0,2512966;0,2511905;0,2513345;0,2525239;0,2556984;0,2634191;0,276696;0,2982985;0,326705;0,3475111;0,3535082;0,3521205;0,3484252;0,3437702;0,338621;0,3332671;0,3279454;0,3226823;0,3173749;0,3121107;0,3071095;0,3026745;0,2989799;0,2959898;0,2937485;0,2922366;0,2911847;0,2901884;0,2892462;0,288729;0,2887325;0,2889315;0,2891479;0,2893623;0,2885736;0,2887026;0,2907159;0,2949809;0,3024246;0,3148346;0,3270223;0,3352294;0,3370795;0,3370335;0,3436651;0,3273675;0,3072081;0,2998592;0,2985259;0,2995593;0,3014437;0,3029905;0,304753;0,3079131;0,3124007;0,3174966;0,3226082;0,3270629;0,3310806;0,335253;0,3398244;0,344856;0,3472649;0,3487518;0,3535091;0,3586867;0,360724;0,3622744;0,3663999;0,3729675;0,3808661;0,3892496;0,3955752;0,399429;0,4029389;0,4071467;0,4121127;0,4179822;0,4213209
42;2,720668801;4,66;2,33655078;0,20112433;0,12013218;7,25E-02;0,9622635;0,9806028;0,988648;0,9892533;0,9847493;0,9784781;0,9750694;0,9744255;0,9734797;0,9690277;0,9577969;0,9394053;0,9162812;0,8902953;0,8622731;0,8331131;0,8041665;0,7763379;0,7504757;0,7279399;0,7085953;0,6917092;0,6770269;0,6642656;0,6527896;0,6421497;0,6317765;0,6205649;0,6084561;0,5966463;0,5855131;0,5746224;0,5637938;0,5531166;0,5426903;0,5324988;0,5225812;0,5130235;0,5038826;0,4951808;0,4869324;0,4791872;0,4719341;0,4650362;0,4585521;0,452639;0,4471805;0,4419336;0,4370023;0,432746;0,4290201;0,4256425;0,422547;0,4196823;0,4169681;0,4143122;0,4116612;0,408957;0,4061646;0,4033066;0,400387;0,3973554;0,3942094;0,3909994;0,3877995;0,3844916;0,3809336;0,3771369;0,3733128;0,3694948;0,3656361;0,3617245;0,357757;0,3537343;0,3496725;0,3455826;0,3414794;0,3373532;0,3331262;0,3288919;0,3248238;0,3206723;0,3179534;0,3147179;0,310591;0,3066244;0,3027685;0,2990305;0,2954797;0,292004;0,288524;0,285114;0,2818831;0,2788556;0,2760061;0,2732616;0,2706783;0,2682985;0,2660547;0,263817;0,2616151;0,2595868;0,2577442;0,256102;0,2546276;0,2533239;0,2521133;0,2509788;0,2499503;0,2490378;0,2481121;0,2473183;0,246823;0,2466392;0,2480448;0,2525358;0,2636665;0,2728435;0,278522;0,2762579;0,2651263;0,2594749;0,2570805;0,255662;0,2545946;0,2533299;0,2514921;0,2494717;0,2475297;0,2456784;0,2438815;0,2422418;0,2407554;0,2394416;0,2382932;0,2372178;0,2361638;0,2351334;0,2341975;0,2333147;0,2325228;0,2319269;0,2315523;0,2310306;0,2303783;0,2299141;0,2296327;0,2294818;0,2292086;0,2290373;0,2288655;0,2286253;0,2284468;0,2285244;0,2288043;0,2291814;0,2295157;0,229902;0,2305867;0,2311361;0,2315974;0,2320277;0,2323079;0,232499;0,2325868;0,2324718;0,2323047;0,2322255;0,2322018;0,2323627;0,2328147;0,2341572;0,2371401;0,2441399;0,2563232;0,2760868;0,3019018;0,3204882;0,325977;0,325234;0,3224272;0,3186662;0,3143461;0,3098128;0,30528;0,3008525;0,2965163;0,2922694;0,2882118;0,2846092;0,2814872;0,2789223;0,2770535;0,275813;0,27513;0,2746499;0,2741765;0,2741454;0,2745079;0,2750207;0,2754054;0,2755702;0,2750627;0,2750855;0,2762843;0,2794063;0,2868358;0,3021581;0,3128437;0,3178178;0,3208979;0,3203428;0,3200729;0,3063633;0,2919143;0,2859717;0,2845391;0,2851994;0,2864709;0,2876633;0,2893167;0,2923369;0,2964358;0,3010568;0,3061583;0,3113692;0,3156715;0,3192447;0,3232927;0,3271294;0,3283269;0,329007;0,3321257;0,3364356;0,3390348;0,3413284;0,3457454;0,3522027;0,3600932;0,3676761;0,3728099;0,3760957;0,3793577;0,3831737;0,3879149;0,3932973;0,3966334
43;5,947263816;4,57;3,51328;0,58128733;0,298614276;6,58E-02;1,0240628;1,0413133;1,0489645;1,050335;1,0491557;1,0471252;1,0457655;1,0454645;1,0441971;1,0397595;1,0307283;1,0170728;1,0004907;0,9821616;0,9627708;0,9428104;0,9231911;0,9041324;0,8858751;0,8690397;0,8535476;0,8389563;0,8252577;0,8124939;0,8003099;0,7884037;0,77653;0,7640307;0,7509699;0,7381269;0,7257867;0,7136043;0,7014877;0,6895486;0,6778463;0,6663665;0,6551307;0,6442266;0,6336774;0,6234949;0,6136743;0,6042311;0,5951566;0,5863529;0,5778537;0,5697413;0,5619691;0,5543579;0,5470713;0,5403357;0,5340446;0,5280563;0,5223197;0,5168118;0,5115022;0,5063148;0,501236;0,4962369;0,4913052;0,4864728;0,4817578;0,4771184;0,4725292;0,4680705;0,4638943;0,459435;0,454786;0,4502366;0,4457624;0,4413539;0,4369897;0,4326535;0,4283447;0,4240468;0,419779;0,4155443;0,4113672;0,4072225;0,4030273;0,3988781;0,3949129;0,3908937;0,3885479;0,3855994;0,3816768;0,3779218;0,3742713;0,3707041;0,367299;0,3639605;0,3605862;0,3572297;0,3540192;0,3509543;0,3480513;0,3452069;0,3424846;0,3400219;0,3375085;0,3348913;0,3324287;0,3301402;0,3280322;0,3260621;0,3242314;0,3225348;0,3209521;0,3195558;0,3183265;0,317261;0,3159359;0,3146042;0,313743;0,3132273;0,3133488;0,3197492;0,3475311;0,3495283;0,3397071;0,3348548;0,3284899;0,3250109;0,3229045;0,3214583;0,3203314;0,3188757;0,316844;0,3146164;0,3124358;0,3102999;0,3082528;0,3063849;0,3047085;0,3032091;0,3019335;0,3007376;0,2995174;0,2983048;0,2971583;0,2960581;0,2950198;0,2941937;0,2935703;0,2928185;0,2919413;0,2912981;0,2909041;0,2906848;0,2903319;0,2900608;0,2897975;0,2894626;0,2891887;0,2892166;0,2895233;0,2899823;0,2902857;0,2904713;0,2909656;0,291409;0,2917453;0,292019;0,2921613;0,2922257;0,2922204;0,2920277;0,2917128;0,2915058;0,2914051;0,2914444;0,2919382;0,2934757;0,2966968;0,3040366;0,3169541;0,3384116;0,3665268;0,3875026;0,395;0,3954422;0,3930745;0,3892938;0,3846776;0,3797346;0,3748087;0,3700266;0,3652879;0,3606669;0,3563438;0,35254;0,3493454;0,346765;0,3449496;0,343932;0,3440171;0,3446089;0,3444388;0,344548;0,3440693;0,3435635;0,3436683;0,3440921;0,3448686;0,3463868;0,3485039;0,3543298;0,3735378;0,4159813;0,4184067;0,3934111;0,3859066;0,382008;0,3767369;0,3683876;0,3608665;0,3566302;0,3566541;0,3589119;0,3618664;0,3650156;0,3689492;0,3747191;0,3808313;0,3867961;0,3944793;0,4037979;0,4069223;0,403904;0,4059041;0,4103631;0,4107403;0,4101862;0,4121082;0,4192052;0,4249661;0,427869;0,4319835;0,4381144;0,4471772;0,454534;0,458351;0,4628454;0,4674991;0,4718782;0,4788736;0,4879588;0,493992
44;5,643708088;4,84;2,80579324;0,73480077;0,380259144;4,21E-02;0,9857058;0,9981037;1,0027174;1,0016328;0,9976835;0,9932145;0,9902436;0,988074;0,9849593;0,9793928;0,9698606;0,9564157;0,9404325;0,9230037;0,9046368;0,8861376;0,8681824;0,850957;0,8345607;0,8195074;0,8055819;0,792636;0,7807046;0,7695259;0,7586713;0,7477235;0,7366494;0,7255006;0,714348;0,7033086;0,6926447;0,6821679;0,6716939;0,6613353;0,6513124;0,6416342;0,6322743;0,6232915;0,6146941;0,6064394;0,5985126;0,5909469;0,5837182;0,576646;0,5697492;0,5632201;0,5569663;0,5507696;0,5447186;0,5391665;0,5339818;0,5290048;0,5242131;0,519577;0,5150696;0,5106375;0,5062723;0,5019431;0,4976485;0,4934316;0,4893176;0,4852583;0,4812312;0,4773151;0,4736916;0,4697535;0,4656377;0,4616435;0,4577177;0,4538581;0,4500427;0,446255;0,4424938;0,4387545;0,4350523;0,431392;0,4277894;0,4242275;0,4206257;0,417052;0,4136543;0,4102008;0,4077883;0,4050611;0,4017065;0,3984738;0,3953133;0,3922095;0,3892375;0,3863272;0,3833869;0,3804531;0,3776348;0,3749561;0,372398;0,3698849;0,3674611;0,3652208;0,3629424;0,3605716;0,3583221;0,3562152;0,3542406;0,3523557;0,3505755;0,3488847;0,3472587;0,3457876;0,3444355;0,3431959;0,3417028;0,3401404;0,3388766;0,3378191;0,3369878;0,3408983;0,3634577;0,3627363;0,3523569;0,3477618;0,3425996;0,3394362;0,3373889;0,3359169;0,3346905;0,3332347;0,3314045;0,3295005;0,3276569;0,3258753;0,32414;0,3225395;0,3210204;0,3196098;0,3183241;0,3170892;0,3158147;0,3145391;0,3133379;0,3121693;0,3110649;0,3101254;0,3093733;0,308454;0,3073756;0,3064828;0,3057374;0,3050953;0,3042986;0,3036318;0,302982;0,3022312;0,3015468;0,3011169;0,3008529;0,3007157;0,3004837;0,3002043;0,3002459;0,3001616;0,2999664;0,2997266;0,2993815;0,298993;0,2986018;0,2980735;0,297463;0,2969328;0,2964878;0,2961563;0,2961291;0,2966442;0,2980831;0,3020762;0,3099893;0,3242455;0,3439625;0,3583382;0,3626074;0,3621175;0,3599765;0,3569675;0,3534824;0,3497508;0,3460653;0,3425254;0,3390759;0,3356639;0,3324317;0,3295581;0,3270199;0,3248664;0,3232455;0,3222561;0,3222528;0,3227435;0,322459;0,3223369;0,3216032;0,3208179;0,3206417;0,3207999;0,3213252;0,3224224;0,3238323;0,3284172;0,3453419;0,3849698;0,3851202;0,3589213;0,3515798;0,3481178;0,3425448;0,3364012;0,3309798;0,3269193;0,3262173;0,3276011;0,3296801;0,3320346;0,3351812;0,3402338;0,345661;0,3507941;0,3576903;0,3664107;0,368591;0,3643627;0,3654842;0,3693443;0,3689435;0,3676643;0,3686065;0,3749697;0,3803079;0,3825175;0,3858649;0,3909286;0,3989762;0,4048045;0,4066462;0,4099755;0,4134743;0,4163623;0,4223299;0,4311451;0,4368353
45;12,77726769;4,49;0,6203135;0,09160118;0,1491102;9,79E-02;0,9318499;0,9459406;0,951018;0,9495874;0,9446743;0,9390564;0,9354014;0,9331929;0,9302523;0,9244376;0,9132266;0,8966383;0,8768586;0,8553627;0,8329223;0,8102415;0,7882874;0,7675677;0,7482187;0,7308983;0,7153763;0,7014457;0,689102;0,6779138;0,6671119;0,656099;0,6448327;0,6333891;0,6218238;0,6102659;0,5989509;0,5878083;0,5768184;0,5661252;0,5558166;0,5458523;0,5362496;0,5270696;0,5183263;0,5100134;0,5021107;0,4946392;0,4875655;0,4807636;0,4741753;0,4679689;0,4620824;0,4563198;0,4507871;0,4457493;0,4411516;0,4368168;0,4327033;0,4287934;0,4250348;0,4213632;0,4177528;0,4141782;0,4106166;0,4070932;0,4036239;0,4001677;0,3967094;0,3932685;0,3898989;0,3865842;0,3831358;0,3795633;0,3760385;0,3725726;0,3691378;0,3657191;0,3623132;0,3589162;0,3555445;0,3522019;0,348904;0,3456321;0,3423056;0,3390008;0,3358659;0,3326856;0,3307894;0,328462;0,3253662;0,3223888;0,3195325;0,3167239;0,3140686;0,3114681;0,3088563;0,3062646;0,3037763;0,3014606;0,2992575;0,2970764;0,2949853;0,2929911;0,2911229;0,289299;0,2874904;0,285795;0,2842362;0,2827655;0,2814066;0,2801603;0,278974;0,2778729;0,2768116;0,2758443;0,2748897;0,2739469;0,2730293;0,2723966;0,2723136;0,2735145;0,2782167;0,2861014;0,2919881;0,289565;0,2834013;0,280118;0,2786037;0,2776207;0,2767493;0,2757196;0,2743183;0,2728029;0,2713144;0,2698601;0,2684362;0,2671439;0,2659371;0,264853;0,2639153;0,2630212;0,2621532;0,2612902;0,2604905;0,2597172;0,2589908;0,2584185;0,2580439;0,2574956;0,2567924;0,2562737;0,2559395;0,2557221;0,255379;0,2551389;0,254899;0,2545742;0,2542953;0,2542744;0,2544355;0,2546948;0,2548444;0,2549102;0,2552785;0,2555441;0,2557193;0,2558242;0,2558041;0,2557242;0,2555815;0,2553404;0,2550627;0,2548375;0,2546779;0,2546306;0,2548369;0,2555706;0,2572085;0,2613207;0,2690943;0,2824799;0,3011772;0,3164496;0,322792;0,3238526;0,32245;0,3196328;0,3160431;0,3122002;0,3083897;0,3047137;0,3010941;0,2975313;0,2942402;0,2914321;0,2891557;0,2873676;0,2861506;0,2853839;0,2848888;0,2843359;0,2837685;0,283438;0,2834913;0,2837811;0,2839102;0,2837119;0,2832298;0,2828489;0,2829605;0,2838342;0,2860413;0,2910978;0,2985698;0,3065528;0,3132728;0,3150838;0,3105072;0,301632;0,2943418;0,2908203;0,2899341;0,2906849;0,2918611;0,293019;0,2940891;0,2955175;0,297813;0,3008899;0,3044498;0,3076286;0,3105867;0,3144467;0,3180944;0,3205718;0,32083;0,3209471;0,3221865;0,3240939;0,3259713;0,3283751;0,3323037;0,337642;0,3437694;0,3495171;0,3534531;0,3560947;0,3588377;0,3619221;0,3650607;0,3681964;0,37
46;5,04792938;4,57;0,97592331;0,16709069;0,150854508;0,13808067;1,0017545;1,0142169;1,0176021;1,0146625;1,0101787;1,0064133;1,0053748;1,0061063;1,0048107;0,9993029;0,9887524;0,9737762;0,9563235;0,9379915;0,9192054;0,9005573;0,882796;0,8660234;0,8502654;0,8359036;0,8226719;0,8104895;0,7995041;0,7895337;0,7797325;0,7693753;0,7583565;0,7468485;0,7349511;0,7229196;0,7110184;0,6991842;0,6873321;0,6756632;0,6644021;0,6535392;0,6430525;0,6330051;0,6233596;0,6141047;0,6051802;0,596596;0,5883515;0,5803676;0,5725222;0,5649384;0,5576344;0,5504755;0,5435849;0,5371259;0,5311005;0,525332;0,5197811;0,5144225;0,5092375;0,5041585;0,4991746;0,4942536;0,4893812;0,4845898;0,4799077;0,475315;0,4707723;0,4662811;0,461884;0,4575563;0,4531694;0,4487122;0,4443179;0,4400032;0,4357382;0,4315113;0,4273134;0,4231406;0,4190124;0,4149255;0,4108901;0,4068864;0,4028406;0,3988428;0,3950402;0,3911857;0,3885226;0,3854821;0,3817391;0,3781444;0,3746457;0,37121;0,3679602;0,3647817;0,3615814;0,3583838;0,3553171;0,35241;0,3496376;0,3469229;0,3442949;0,341757;0,3393679;0,3370438;0,3347699;0,3326334;0,3306691;0,3288388;0,3271304;0,3255697;0,3241161;0,3227745;0,3214993;0,3203547;0,3192742;0,3182701;0,3173501;0,3168088;0,3172089;0,3194041;0,3244471;0,332168;0,3390887;0,3386515;0,3333666;0,330621;0,3293521;0,3284032;0,3274709;0,3262947;0,3246168;0,3227422;0,3208501;0,3189615;0,3171206;0,315462;0,313933;0,3125679;0,3114002;0,3103152;0,3092986;0,3083391;0,3074511;0,3065955;0,3057984;0,305169;0,3047512;0,3042086;0,3035384;0,3031119;0,3028942;0,3028738;0,3027279;0,3026851;0,3026865;0,3026353;0,302666;0,3030405;0,3036771;0,304428;0,3049609;0,305061;0,3055525;0,3061313;0,3065887;0,3068326;0,3069783;0,307068;0,3070606;0,3068881;0,3066576;0,3064822;0,3064304;0,3065629;0,3070082;0,3083335;0,3111342;0,317594;0,3288708;0,3470142;0,3710645;0,3920125;0,4032194;0,4070467;0,4065354;0,4034275;0,3988954;0,393776;0,3885484;0,3834079;0,3782654;0,3731972;0,3685243;0,3645882;0,3613914;0,3588908;0,3571203;0,3559032;0,3549284;0,3538392;0,3526618;0,3517946;0,3513593;0,3512284;0,3511701;0,3509165;0,3504643;0,3503507;0,3510739;0,3528231;0,3558807;0,3612625;0,3686129;0,3763521;0,3829006;0,3863127;0,3852108;0,3761439;0,3674794;0,3639883;0,3637987;0,365444;0,3675815;0,3697266;0,371842;0,3743624;0,3777945;0,3822193;0,3870569;0,3903203;0,3924822;0,3965599;0,4012239;0,4051816;0,4061354;0,4069949;0,4095661;0,4129006;0,4156424;0,4185356;0,4229291;0,4288039;0,4357812;0,4427825;0,448579;0,4530401;0,4576711;0,4623758;0,4672498;0,4717672;0,4748527
47;9,944080896;4,08;0,49701933;0,12183319;0,20875428;6,48E-02;0,9642836;0,9802058;0,9879157;0,9894427;0,989083;0,9877753;0,987323;0,9874173;0,9866141;0,9830207;0,975275;0,9633429;0,9486954;0,9323358;0,914834;0,8968427;0,8792316;0,8620396;0,8454395;0,8300533;0,8157162;0,8021308;0,7892517;0,7771167;0,7654138;0,7538284;0,7421713;0,7300745;0,7175639;0,7051135;0,6929879;0,6807942;0,668322;0,6557661;0,6433967;0,6312615;0,6193777;0,6078198;0,5966147;0,5857568;0,575217;0,5650229;0,5551544;0,5454778;0,536009;0,5269576;0,5182682;0,5097395;0,5014818;0,493825;0,4866504;0,479795;0,473219;0,4669073;0,4608234;0,4548996;0,4491284;0,4434758;0,437922;0,4325137;0,4272635;0,4221133;0,4170559;0,4121206;0,4073138;0,402586;0,3978321;0,3929534;0,3881595;0,3834917;0,3789005;0,3743651;0,3698763;0,3654315;0,3610447;0,3567223;0,3524843;0,3483086;0,344105;0,3399635;0,3360242;0,3320647;0,3294474;0,3264165;0,3226413;0,3190336;0,315529;0,3121425;0,3089268;0,305816;0,3026518;0,2995216;0,2965188;0,2936916;0,2909904;0,2883548;0,2858202;0,283407;0,2811469;0,2788889;0,2766265;0,2745048;0,2725752;0,2708311;0,2692778;0,2679064;0,2666439;0,2653905;0,2642405;0,2631979;0,2622215;0,2615103;0,261176;0,2612505;0,2639225;0,2692282;0,2751112;0,2821274;0,2906494;0,291323;0,2796527;0,2738813;0,2716008;0,2701586;0,2689822;0,2676314;0,2657552;0,2636857;0,2616662;0,2596649;0,257684;0,2558787;0,2542377;0,2527813;0,2515118;0,2503359;0,2492463;0,2481934;0,2472272;0,2462781;0,2453852;0,2446512;0,2441404;0,2435018;0,2427169;0,2421646;0,2418355;0,241682;0,2414235;0,2412894;0,241207;0,2410845;0,2410193;0,2412573;0,24176;0,2423683;0,2427993;0,2429571;0,2434921;0,2440205;0,2444492;0,2447817;0,2450601;0,2453063;0,2454181;0,2452484;0,2449924;0,2448288;0,2446859;0,2447297;0,2450143;0,2462514;0,2492269;0,2562677;0,2685039;0,2883886;0,3144977;0,3349642;0,343044;0,3438402;0,3415717;0,3376999;0,3329223;0,3278069;0,3226752;0,3176013;0,3125064;0,3075138;0,3029183;0,2990717;0,2960507;0,2938013;0,2923217;0,291477;0,2910129;0,2903998;0,2896988;0,289382;0,2895285;0,2898612;0,2902892;0,2906923;0,2902611;0,2908414;0,2933487;0,2978146;0,3053547;0,3182437;0,3311549;0,3392297;0,3399649;0,3399148;0,3469482;0,3320173;0,3141674;0,3079715;0,3074674;0,3091013;0,3115587;0,3136122;0,3158114;0,3191924;0,3240303;0,329661;0,3350104;0,3387111;0,3413355;0,3447769;0,349034;0,3539865;0,3560245;0,357284;0,3616239;0,3663197;0,3680754;0,3692736;0,3727875;0,3786832;0,3861509;0,3943393;0,400883;0,405042;0,4091826;0,4141183;0,4195838;0,4256263;0,4290665
